EC-Lab ASCII FILE
Nb header lines : 61                          

Chronoamperometry / Chronocoulometry

Run on channel : 1 (SN 5836)
User : 
Electrode connection : standard
Ewe ctrl range : min = -10.00 V, max = 10.00 V
Ewe,I filtering : <None>
Safety Limits :
	Do not start on E overload
Channel : Grounded
Acquisition started on : 05/05/2022 15:55:02
Saved on :
	File : multiple_techniques_dataset_01_05_CA_C01.mpr
	Directory : C:\Users\Spectro Inlets\Desktop\Zilien Data Dir\multiple_techniques_dataset\
	Host : 192.168.1.105
Device : SP-200 (SN 0763)
Address : USB
EC-Lab for windows v11.27 (software)
Internet server v11.25 (firmware)
Command interpretor v11.27 (firmware)
Electrode material : 
Initial state : 
Electrolyte : 
Comments : 
Cable : standard
Electrode surface area : 0.001 cm²
Characteristic mass : 0.001 g
Equivalent Weight : 0.000 g/eq.
Density : 0.000 g/cm3
Cycle Definition : Charge/Discharge alternance
Ns                  0                   1                   2                   
Ei (V)              0.050               1.600               0.200               
vs.                 Ref                 Ref                 Ref                 
ti (h:m:s)          0:00:10.0000        0:00:10.0000        0:00:10.0000        
Imax                pass                pass                pass                
unit Imax           mA                  mA                  mA                  
Imin                pass                pass                pass                
unit Imin           mA                  mA                  mA                  
dQM                 0.000               0.000               0.000               
unit dQM            mA.h                mA.h                mA.h                
record              <I>                 <I>                 <I>                 
dI                  5.000               5.000               5.000               
unit dI             µA                  µA                  µA                  
dQ                  0.000               0.000               0.000               
unit dQ             mA.h                mA.h                mA.h                
dt (s)              1.0000              1.0000              1.0000              
dta (s)             1.0000              0.1000              0.1000              
E range min (V)     -10.000             -10.000             -10.000             
E range max (V)     10.000              10.000              10.000              
I Range             100 µA              100 µA              100 µA              
I Range min         Unset               Unset               Unset               
I Range max         Unset               Unset               Unset               
I Range init        Unset               Unset               Unset               
Bandwidth           1                   1                   1                   
goto Ns'            0                   0                   0                   
nc cycles           0                   0                   0                   

mode	ox/red	error	control changes	Ns changes	counter inc.	Ns	time/s	control/V	Ewe/V	<I>/mA	dQ/C	(Q-Qo)/C	I Range	Rcmp/Ohm	Q charge/discharge/mA.h	half cycle	Energy charge/W.h	Energy discharge/W.h	Capacitance charge/µF	Capacitance discharge/µF	Q discharge/mA.h	Q charge/mA.h	Capacity/mA.h	Efficiency/%	cycle number	P/W	
2	0	1	0	0	0	0	6.005809868421056E+002	5.0035376E-002	4.9797375E-002	-3.640213997266856E-002	-3.6402140E-005	-3.6402140E-005	41	0.0000000E+000	-1.011170550352997E-005	0	0.000000000000000E+000	-5.035363883729353E-010	0.000000000000000E+000	0.000000000000000E+000	1.011170550352997E-005	0.000000000000000E+000	1.011170550352997E-005	0.0000000E+000	0.000000000000000E+000	-1.8127311E-006
2	0	0	0	0	0	0	6.015809868168435E+002	5.0035376E-002	5.0844159E-002	-3.440988416317847E-003	-3.9843129E-005	-3.9843129E-005	41	0.0000000E+000	-1.106753592870923E-005	0	0.000000000000000E+000	-5.521347824660609E-010	0.000000000000000E+000	3.806240913951899E+004	1.106753592870923E-005	0.000000000000000E+000	1.106753592870923E-005	0.0000000E+000	0.000000000000000E+000	-1.7495417E-007
2	0	0	0	0	0	0	6.025809867915814E+002	5.0035376E-002	5.0767753E-002	-2.976828164374459E-003	-4.2819956E-005	-4.2819956E-005	41	0.0000000E+000	-1.189443234276647E-005	0	0.000000000000000E+000	-5.941144555974533E-010	0.000000000000000E+000	4.412706550594278E+004	1.189443234276647E-005	0.000000000000000E+000	1.189443234276647E-005	0.0000000E+000	0.000000000000000E+000	-1.5112688E-007
2	0	0	0	0	0	0	6.035809867663193E+002	5.0035376E-002	5.0897647E-002	-2.721805075323214E-003	-4.5541761E-005	-4.5541761E-005	41	0.0000000E+000	-1.265048922505230E-005	0	0.000000000000000E+000	-6.325959716736443E-010	0.000000000000000E+000	4.139136839262981E+004	1.265048922505230E-005	0.000000000000000E+000	1.265048922505230E-005	0.0000000E+000	0.000000000000000E+000	-1.3853348E-007
2	0	0	0	0	0	0	6.045809867410571E+002	5.0035376E-002	4.9388591E-002	-2.548450619122015E-003	-4.8090213E-005	-4.8090213E-005	41	0.0000000E+000	-1.335839240507792E-005	0	0.000000000000000E+000	-6.675583124411899E-010	0.000000000000000E+000	1.176422389463648E+005	1.335839240507792E-005	0.000000000000000E+000	1.335839240507792E-005	0.0000000E+000	0.000000000000000E+000	-1.2586439E-007
2	0	0	0	0	0	0	6.055809867157950E+002	5.0035376E-002	5.0607294E-002	-2.432737970072776E-003	-5.0522951E-005	-5.0522951E-005	41	0.0000000E+000	-1.403415303179322E-005	0	0.000000000000000E+000	-7.017567290457273E-010	0.000000000000000E+000	6.238024463889821E+004	1.403415303179322E-005	0.000000000000000E+000	1.403415303179322E-005	0.0000000E+000	0.000000000000000E+000	-1.2311429E-007
2	0	0	0	0	0	0	6.065809866905329E+002	5.0035376E-002	4.9904346E-002	-2.350474563310855E-003	-5.2873424E-005	-5.2873424E-005	41	0.0000000E+000	-1.468706209885163E-005	0	0.000000000000000E+000	-7.343397293390456E-010	0.000000000000000E+000	4.942748236984155E+005	1.468706209885163E-005	0.000000000000000E+000	1.468706209885163E-005	0.0000000E+000	0.000000000000000E+000	-1.1729890E-007
2	0	0	0	0	0	0	6.075809866652708E+002	5.0035376E-002	4.9720965E-002	-2.292310209968132E-003	-5.5165732E-005	-5.5165732E-005	41	0.0000000E+000	-1.532381449780789E-005	0	0.000000000000000E+000	-7.659996732886902E-010	0.000000000000000E+000	7.219754510537030E+005	1.532381449780789E-005	0.000000000000000E+000	1.532381449780789E-005	0.0000000E+000	0.000000000000000E+000	-1.1397588E-007
2	0	0	0	0	0	0	6.085809866400086E+002	5.0035376E-002	4.9824115E-002	-2.229724013642416E-003	-5.7395457E-005	-5.7395457E-005	41	0.0000000E+000	-1.594318241081459E-005	0	0.000000000000000E+000	-7.968591313448382E-010	0.000000000000000E+000	2.146416214257105E+006	1.594318241081459E-005	0.000000000000000E+000	1.594318241081459E-005	0.0000000E+000	0.000000000000000E+000	-1.1109402E-007
2	0	0	0	0	0	0	6.095807866147516E+002	5.0035376E-002	4.9904346E-002	-2.185538270901788E-003	-5.9580558E-005	-5.9580558E-005	41	0.0000000E+000	-1.655015492158580E-005	0	0.000000000000000E+000	-8.271496978177414E-010	0.000000000000000E+000	5.569748974294793E+005	1.655015492158580E-005	0.000000000000000E+000	1.655015492158580E-005	0.0000000E+000	0.000000000000000E+000	-1.0906786E-007
2	1	1	1	1	0	1	6.100061866040051E+002	1.5998993E+000	1.6026148E+000	2.502283725973355E-001	1.0644716E-004	4.6866597E-005	41	0.0000000E+000	2.956865399836614E-005	2	4.738716134290849E-008	0.000000000000000E+000	0.000000000000000E+000	0.000000000000000E+000	0.000000000000000E+000	2.956865399836614E-005	2.956865399836614E-005	0.0000000E+000	1.000000000000000E+000	4.0101967E-004
2	1	0	1	0	0	1	6.101061866014788E+002	1.5998993E+000	1.6001890E+000	1.359246950298545E-001	1.2003962E-004	6.0459064E-005	41	0.0000000E+000	3.334433939825329E-005	2	5.342897147613422E-008	0.000000000000000E+000	4.948475758176077E+004	0.000000000000000E+000	0.000000000000000E+000	3.334433939825329E-005	3.334433939825329E-005	0.0000000E+000	1.000000000000000E+000	2.1750519E-004
2	1	0	1	0	0	1	6.102061865989526E+002	1.5998993E+000	1.6001086E+000	7.491187274456035E-002	1.2753082E-004	6.7950255E-005	41	0.0000000E+000	3.542522588557201E-005	2	5.675861588902718E-008	0.000000000000000E+000	5.088740901659417E+004	0.000000000000000E+000	0.000000000000000E+000	3.542522588557201E-005	3.542522588557201E-005	0.0000000E+000	1.000000000000000E+000	1.1986713E-004
2	1	0	1	0	0	1	6.103061865964264E+002	1.5998993E+000	1.6007161E+000	5.657289506494995E-002	1.3318811E-004	7.3607545E-005	41	0.0000000E+000	3.699669529548070E-005	2	5.927409229619552E-008	0.000000000000000E+000	7.014897889528688E+004	0.000000000000000E+000	0.000000000000000E+000	3.699669529548070E-005	3.699669529548070E-005	0.0000000E+000	1.000000000000000E+000	9.0557143E-005
2	1	0	1	0	0	1	6.104061865939002E+002	1.5998993E+000	1.6002729E+000	4.682545480877165E-002	1.3787065E-004	7.8290090E-005	41	0.0000000E+000	3.829740206937357E-005	2	6.135557808937574E-008	0.000000000000000E+000	5.887212095505774E+004	0.000000000000000E+000	0.000000000000000E+000	3.829740206937357E-005	3.829740206937357E-005	0.0000000E+000	1.000000000000000E+000	7.4933509E-005
2	1	0	1	0	0	1	6.105061865913740E+002	1.5998993E+000	1.5997610E+000	4.058489165455101E-002	1.4192914E-004	8.2348575E-005	41	0.0000000E+000	3.942475915310852E-005	2	6.315907999539872E-008	0.000000000000000E+000	4.973423535266393E+004	0.000000000000000E+000	0.000000000000000E+000	3.942475915310852E-005	3.942475915310852E-005	0.0000000E+000	1.000000000000000E+000	6.4926127E-005
2	1	0	1	0	0	1	6.106061865888478E+002	1.5998993E+000	1.5997992E+000	3.617397391051053E-002	1.4554654E-004	8.5965978E-005	41	0.0000000E+000	4.042959315281930E-005	2	6.476661258024601E-008	0.000000000000000E+000	5.169282487872250E+004	0.000000000000000E+000	0.000000000000000E+000	4.042959315281930E-005	4.042959315281930E-005	0.0000000E+000	1.000000000000000E+000	5.7871093E-005
2	1	0	1	0	0	1	6.107061865863216E+002	1.5998993E+000	1.6006817E+000	3.287344061210751E-002	1.4883387E-004	8.9253321E-005	41	0.0000000E+000	4.134274402329336E-005	2	6.622827643376407E-008	0.000000000000000E+000	7.699241882836107E+004	0.000000000000000E+000	0.000000000000000E+000	4.134274402329336E-005	4.134274402329336E-005	0.0000000E+000	1.000000000000000E+000	5.2619915E-005
2	1	0	1	0	0	1	6.108061865837954E+002	1.5998993E+000	1.6003799E+000	3.026514508947730E-002	1.5186040E-004	9.2279835E-005	41	0.0000000E+000	4.218344252472484E-005	2	6.757371345427781E-008	0.000000000000000E+000	6.795206210858320E+004	0.000000000000000E+000	0.000000000000000E+000	4.218344252472484E-005	4.218344252472484E-005	0.0000000E+000	1.000000000000000E+000	4.8435730E-005
2	1	0	1	0	0	1	6.109061865812691E+002	1.5998993E+000	1.6000896E+000	2.816524333134290E-002	1.5467692E-004	9.5096359E-005	41	0.0000000E+000	4.296581007818329E-005	2	6.882557160084006E-008	0.000000000000000E+000	6.125308111853771E+004	0.000000000000000E+000	0.000000000000000E+000	4.296581007818329E-005	4.296581007818329E-005	0.0000000E+000	1.000000000000000E+000	4.5066910E-005
2	1	0	1	0	0	1	6.110061865787429E+002	1.5998993E+000	1.6008308E+000	2.642032668367027E-002	1.5731895E-004	9.7738390E-005	41	0.0000000E+000	4.369970762733525E-005	2	7.000041739670917E-008	0.000000000000000E+000	8.818489683936999E+004	0.000000000000000E+000	0.000000000000000E+000	4.369970762733525E-005	4.369970762733525E-005	0.0000000E+000	1.000000000000000E+000	4.2294472E-005
2	1	0	1	0	0	1	6.111061865762167E+002	1.5998993E+000	1.6000437E+000	2.493903455138208E-002	1.5981286E-004	1.0023230E-004	41	0.0000000E+000	4.439245963617900E-005	2	7.110885085256146E-008	0.000000000000000E+000	6.215724180996948E+004	0.000000000000000E+000	0.000000000000000E+000	4.439245963617900E-005	4.439245963617900E-005	0.0000000E+000	1.000000000000000E+000	3.9903545E-005
2	1	0	1	0	0	1	6.112061865736905E+002	1.5998993E+000	1.6005785E+000	2.367331730201844E-002	1.6218018E-004	1.0259962E-004	41	0.0000000E+000	4.505005057985222E-005	2	7.216137680939331E-008	0.000000000000000E+000	7.964791129912714E+004	0.000000000000000E+000	0.000000000000000E+000	4.505005057985222E-005	4.505005057985222E-005	0.0000000E+000	1.000000000000000E+000	3.7891004E-005
2	1	0	1	0	0	1	6.113061865711643E+002	1.5998993E+000	1.5997572E+000	2.256381203234198E-002	1.6443657E-004	1.0485601E-004	41	0.0000000E+000	4.567682380083069E-005	2	7.316406177898550E-008	0.000000000000000E+000	5.754427810190895E+004	0.000000000000000E+000	0.000000000000000E+000	4.567682380083069E-005	4.567682380083069E-005	0.0000000E+000	1.000000000000000E+000	3.6096622E-005
2	1	0	1	0	0	1	6.114061865686381E+002	1.5998993E+000	1.6007848E+000	2.159328108653419E-002	1.6659590E-004	1.0701534E-004	41	0.0000000E+000	4.627663757774928E-005	2	7.412423454306833E-008	0.000000000000000E+000	9.103691355039473E+004	0.000000000000000E+000	0.000000000000000E+000	4.627663757774928E-005	4.627663757774928E-005	0.0000000E+000	1.000000000000000E+000	3.4566197E-005
2	1	0	1	0	0	1	6.115061865661119E+002	1.5998993E+000	1.5998565E+000	2.072227994725107E-002	1.6866812E-004	1.0908756E-004	41	0.0000000E+000	4.685225475340203E-005	2	7.504513942066338E-008	0.000000000000000E+000	6.115008715328613E+004	0.000000000000000E+000	0.000000000000000E+000	4.685225475340203E-005	4.685225475340203E-005	0.0000000E+000	1.000000000000000E+000	3.3152675E-005
2	1	0	1	0	0	1	6.116061865635857E+002	1.5998993E+000	1.6003723E+000	1.993890121951700E-002	1.7066201E-004	1.1108146E-004	41	0.0000000E+000	4.740611479468903E-005	2	7.593152169682096E-008	0.000000000000000E+000	7.610529635512881E+004	0.000000000000000E+000	0.000000000000000E+000	4.740611479468903E-005	4.740611479468903E-005	0.0000000E+000	1.000000000000000E+000	3.1909665E-005
2	1	0	1	0	0	1	6.117061865610594E+002	1.5998993E+000	1.6000743E+000	1.924567347019912E-002	1.7258657E-004	1.1300602E-004	41	0.0000000E+000	4.794071578039115E-005	2	7.678692299010876E-008	0.000000000000000E+000	6.793492275895152E+004	0.000000000000000E+000	0.000000000000000E+000	4.794071578039115E-005	4.794071578039115E-005	0.0000000E+000	1.000000000000000E+000	3.0794508E-005
2	1	0	1	0	0	1	6.118061865585332E+002	1.5998993E+000	1.6000208E+000	1.861405311897391E-002	1.7444798E-004	1.1486743E-004	41	0.0000000E+000	4.845777362384575E-005	2	7.761422627699282E-008	0.000000000000000E+000	6.725072439979106E+004	0.000000000000000E+000	0.000000000000000E+000	4.845777362384575E-005	4.845777362384575E-005	0.0000000E+000	1.000000000000000E+000	2.9782872E-005
2	1	0	1	0	0	1	6.119061865560070E+002	1.5998993E+000	1.6011668E+000	1.803060035407542E-002	1.7625105E-004	1.1667048E-004	41	0.0000000E+000	4.895862225061542E-005	2	7.841616849222364E-008	0.000000000000000E+000	1.217273904997337E+005	0.000000000000000E+000	0.000000000000000E+000	4.895862225061542E-005	4.895862225061542E-005	0.0000000E+000	1.000000000000000E+000	2.8869999E-005
2	1	0	1	0	0	1	6.120061865534808E+002	1.5998993E+000	1.5996541E+000	1.750524270534509E-002	1.7800157E-004	1.1842101E-004	41	0.0000000E+000	4.944488056126931E-005	2	7.919401358205768E-008	0.000000000000000E+000	6.012181487707802E+004	0.000000000000000E+000	0.000000000000000E+000	4.944488056126931E-005	4.944488056126931E-005	0.0000000E+000	1.000000000000000E+000	2.8002332E-005
2	1	0	1	0	0	1	6.121061865509546E+002	1.5998993E+000	1.6007773E+000	1.702418604120615E-002	1.7970399E-004	1.2012343E-004	41	0.0000000E+000	4.991777334200581E-005	2	7.995100959585573E-008	0.000000000000000E+000	9.779851291528299E+004	0.000000000000000E+000	0.000000000000000E+000	4.991777334200581E-005	4.991777334200581E-005	0.0000000E+000	1.000000000000000E+000	2.7251930E-005
2	1	0	1	0	0	1	6.122061865484284E+002	1.5998993E+000	1.6005480E+000	1.657286197319618E-002	1.8136128E-004	1.2178071E-004	41	0.0000000E+000	5.037813126465255E-005	2	8.068783456155760E-008	0.000000000000000E+000	8.775270357190818E+004	0.000000000000000E+000	0.000000000000000E+000	5.037813126465255E-005	5.037813126465255E-005	0.0000000E+000	1.000000000000000E+000	2.6525662E-005
2	1	0	1	0	0	1	6.123061865459022E+002	1.5998993E+000	1.6003646E+000	1.615887515433133E-002	1.8297716E-004	1.2339660E-004	41	0.0000000E+000	5.082698913207019E-005	2	8.140617078767549E-008	0.000000000000000E+000	8.131615149062881E+004	0.000000000000000E+000	0.000000000000000E+000	5.082698913207019E-005	5.082698913207019E-005	0.0000000E+000	1.000000000000000E+000	2.5860090E-005
2	1	0	1	0	0	1	6.124061865433760E+002	1.5998993E+000	1.5998489E+000	1.576435578055679E-002	1.8455360E-004	1.2497304E-004	41	0.0000000E+000	5.126488859888115E-005	2	8.210674375327763E-008	0.000000000000000E+000	6.672475634130073E+004	0.000000000000000E+000	0.000000000000000E+000	5.126488859888115E-005	5.126488859888115E-005	0.0000000E+000	1.000000000000000E+000	2.5220586E-005
2	1	0	1	0	0	1	6.125061865408497E+002	1.5998993E+000	1.6006894E+000	1.540210007503629E-002	1.8609381E-004	1.2651325E-004	41	0.0000000E+000	5.169272299099249E-005	2	8.279157373446174E-008	0.000000000000000E+000	9.665457015952477E+004	0.000000000000000E+000	0.000000000000000E+000	5.169272299099249E-005	5.169272299099249E-005	0.0000000E+000	1.000000000000000E+000	2.4653978E-005
2	1	0	1	0	0	1	6.126061865383235E+002	1.5998993E+000	1.5998220E+000	1.506402257829904E-002	1.8760021E-004	1.2801964E-004	41	0.0000000E+000	5.211116735558285E-005	2	8.346101025327687E-008	0.000000000000000E+000	6.717482218492219E+004	0.000000000000000E+000	0.000000000000000E+000	5.211116735558285E-005	5.211116735558285E-005	0.0000000E+000	1.000000000000000E+000	2.4099756E-005
2	1	0	1	0	0	1	6.127061865357973E+002	1.5998993E+000	1.5993980E+000	1.474637917801738E-002	1.8907484E-004	1.2949429E-004	41	0.0000000E+000	5.252079164266535E-005	2	8.411616252572285E-008	0.000000000000000E+000	5.877834266913670E+004	0.000000000000000E+000	0.000000000000000E+000	5.252079164266535E-005	5.252079164266535E-005	0.0000000E+000	1.000000000000000E+000	2.3585329E-005
2	1	0	1	0	0	1	6.128061865332711E+002	1.5998993E+000	1.5991918E+000	1.443663598410784E-002	1.9051851E-004	1.3093794E-004	41	0.0000000E+000	5.292180604657107E-005	2	8.475746146605889E-008	0.000000000000000E+000	5.565873887567640E+004	0.000000000000000E+000	0.000000000000000E+000	5.292180604657107E-005	5.292180604657107E-005	0.0000000E+000	1.000000000000000E+000	2.3086950E-005
2	1	0	1	0	0	1	6.129061865307449E+002	1.5998993E+000	1.6001621E+000	1.415829958394171E-002	1.9193433E-004	1.3235379E-004	41	0.0000000E+000	5.331509580880973E-005	2	8.538678885697618E-008	0.000000000000000E+000	7.825711972398036E+004	0.000000000000000E+000	0.000000000000000E+000	5.331509580880973E-005	5.331509580880973E-005	0.0000000E+000	1.000000000000000E+000	2.2655575E-005
2	1	0	1	0	0	1	6.130061865282187E+002	1.5998993E+000	1.6002003E+000	1.390339061617851E-002	1.9332468E-004	1.3374412E-004	41	0.0000000E+000	5.370129959677191E-005	2	8.600479227257651E-008	0.000000000000000E+000	8.006936630139031E+004	0.000000000000000E+000	0.000000000000000E+000	5.370129959677191E-005	5.370129959677191E-005	0.0000000E+000	1.000000000000000E+000	2.2248210E-005
2	1	0	1	0	0	1	6.131061865256925E+002	1.5998993E+000	1.5998145E+000	1.364460759423672E-002	1.9468914E-004	1.3510858E-004	41	0.0000000E+000	5.408031635549075E-005	2	8.661114879187547E-008	0.000000000000000E+000	6.952621830225296E+004	0.000000000000000E+000	0.000000000000000E+000	5.408031635549075E-005	5.408031635549075E-005	0.0000000E+000	1.000000000000000E+000	2.1828842E-005
2	1	0	1	0	0	1	6.132061865231663E+002	1.5998993E+000	1.6002080E+000	1.341495730914172E-002	1.9603064E-004	1.3645008E-004	41	0.0000000E+000	5.445295452470116E-005	2	8.720744738776681E-008	0.000000000000000E+000	8.145149159534200E+004	0.000000000000000E+000	0.000000000000000E+000	5.445295452470116E-005	5.445295452470116E-005	0.0000000E+000	1.000000000000000E+000	2.1466723E-005
2	1	0	1	0	0	1	6.133061865206400E+002	1.5998993E+000	1.6001240E+000	1.317841869592667E-002	1.9734848E-004	1.3776791E-004	41	0.0000000E+000	5.481902007886675E-005	2	8.779319766711068E-008	0.000000000000000E+000	7.923226636300718E+004	0.000000000000000E+000	0.000000000000000E+000	5.481902007886675E-005	5.481902007886675E-005	0.0000000E+000	1.000000000000000E+000	2.1087104E-005
2	1	0	1	0	0	1	6.134061865181138E+002	1.5998993E+000	1.6009949E+000	1.295268064364790E-002	1.9864374E-004	1.3906318E-004	41	0.0000000E+000	5.517881618288812E-005	2	8.836922941072576E-008	0.000000000000000E+000	1.226335334047908E+005	0.000000000000000E+000	0.000000000000000E+000	5.517881618288812E-005	5.517881618288812E-005	0.0000000E+000	1.000000000000000E+000	2.0737176E-005
2	1	0	1	0	0	1	6.135061865155876E+002	1.5998993E+000	1.5999941E+000	1.274934656545518E-002	1.9991868E-004	1.4033812E-004	41	0.0000000E+000	5.553296533536115E-005	2	8.893586595223274E-008	0.000000000000000E+000	7.628454322204147E+004	0.000000000000000E+000	0.000000000000000E+000	5.553296533536115E-005	5.553296533536115E-005	0.0000000E+000	1.000000000000000E+000	2.0398878E-005
2	1	0	1	0	0	1	6.136061865130614E+002	1.5998993E+000	1.5995815E+000	1.255734485760332E-002	2.0117441E-004	1.4159386E-004	41	0.0000000E+000	5.588178282778245E-005	2	8.949382795301904E-008	0.000000000000000E+000	6.632239472353054E+004	0.000000000000000E+000	0.000000000000000E+000	5.588178282778245E-005	5.588178282778245E-005	0.0000000E+000	1.000000000000000E+000	2.0086496E-005
2	1	0	1	0	0	1	6.137061865105352E+002	1.5998993E+000	1.6001277E+000	1.236513646692038E-002	2.0241093E-004	1.4283037E-004	41	0.0000000E+000	5.622525653355600E-005	2	9.004342974281542E-008	0.000000000000000E+000	8.138550986598209E+004	0.000000000000000E+000	0.000000000000000E+000	5.622525653355600E-005	5.622525653355600E-005	0.0000000E+000	1.000000000000000E+000	1.9785797E-005
2	1	0	1	0	0	1	6.138061865080090E+002	1.5998993E+000	1.6004487E+000	1.218924543634053E-002	2.0362985E-004	1.4404929E-004	41	0.0000000E+000	5.656384726333070E-005	2	9.058532684546311E-008	0.000000000000000E+000	9.401051128179606E+004	0.000000000000000E+000	0.000000000000000E+000	5.656384726333070E-005	5.656384726333070E-005	0.0000000E+000	1.000000000000000E+000	1.9508263E-005
2	1	0	1	0	0	1	6.139061865054828E+002	1.5998993E+000	1.5997647E+000	1.201237071119247E-002	2.0483109E-004	1.4525052E-004	41	0.0000000E+000	5.689752267951715E-005	2	9.111912899910571E-008	0.000000000000000E+000	7.186915049968565E+004	0.000000000000000E+000	0.000000000000000E+000	5.689752267951715E-005	5.689752267951715E-005	0.0000000E+000	1.000000000000000E+000	1.9216966E-005
2	1	0	1	0	0	1	6.140061865029566E+002	1.5998993E+000	1.6008421E+000	1.183972841873762E-002	2.0601506E-004	1.4643450E-004	41	0.0000000E+000	5.722640404807559E-005	2	9.164561614580612E-008	0.000000000000000E+000	1.162192020788238E+005	0.000000000000000E+000	0.000000000000000E+000	5.722640404807559E-005	5.722640404807559E-005	0.0000000E+000	1.000000000000000E+000	1.8953537E-005
2	1	0	1	0	0	1	6.141061865004303E+002	1.5998993E+000	1.5998222E+000	1.168307434953747E-002	2.0718337E-004	1.4760281E-004	41	0.0000000E+000	5.755093601086022E-005	2	9.216480957265968E-008	0.000000000000000E+000	7.419021907374219E+004	0.000000000000000E+000	0.000000000000000E+000	5.755093601086022E-005	5.755093601086022E-005	0.0000000E+000	1.000000000000000E+000	1.8690842E-005
2	1	0	1	0	0	1	6.142061864979041E+002	1.5998993E+000	1.6003493E+000	1.152740473672745E-002	2.0833610E-004	1.4875556E-004	41	0.0000000E+000	5.787114282106308E-005	2	9.267725231948380E-008	0.000000000000000E+000	9.196221815914988E+004	0.000000000000000E+000	0.000000000000000E+000	5.787114282106308E-005	5.787114282106308E-005	0.0000000E+000	1.000000000000000E+000	1.8447874E-005
2	1	0	1	0	0	1	6.143061864953779E+002	1.5998993E+000	1.5994782E+000	1.139308136329055E-002	2.0947542E-004	1.4989485E-004	41	0.0000000E+000	5.818761463969067E-005	2	9.318344210846505E-008	0.000000000000000E+000	6.678602572318554E+004	0.000000000000000E+000	0.000000000000000E+000	5.818761463969067E-005	5.818761463969067E-005	0.0000000E+000	1.000000000000000E+000	1.8222985E-005
2	1	0	1	0	0	1	6.144061864928517E+002	1.5998993E+000	1.6004716E+000	1.125329688750204E-002	2.1060075E-004	1.5102018E-004	41	0.0000000E+000	5.850020594759069E-005	2	9.368373562410212E-008	0.000000000000000E+000	9.826716343358463E+004	0.000000000000000E+000	0.000000000000000E+000	5.850020594759069E-005	5.850020594759069E-005	0.0000000E+000	1.000000000000000E+000	1.8010582E-005
2	1	0	1	0	0	1	6.145061864903255E+002	1.5998993E+000	1.6010867E+000	1.111727458424863E-002	2.1171248E-004	1.5213192E-004	41	0.0000000E+000	5.880902184192868E-005	2	9.417817665630785E-008	0.000000000000000E+000	1.385530497693368E+005	0.000000000000000E+000	0.000000000000000E+000	5.880902184192868E-005	5.880902184192868E-005	0.0000000E+000	1.000000000000000E+000	1.7799721E-005
2	1	0	1	0	0	1	6.146061864877993E+002	1.5998993E+000	1.6003188E+000	1.099160291813313E-002	2.1281163E-004	1.5323107E-004	41	0.0000000E+000	5.911434123441319E-005	2	9.466678501689408E-008	0.000000000000000E+000	9.268916556892118E+004	0.000000000000000E+000	0.000000000000000E+000	5.911434123441319E-005	5.911434123441319E-005	0.0000000E+000	1.000000000000000E+000	1.7590070E-005
2	1	0	1	0	0	1	6.147061864852731E+002	1.5998993E+000	1.6005595E+000	1.086091927625238E-002	2.1389773E-004	1.5431717E-004	41	0.0000000E+000	5.941603477468663E-005	2	9.514966347073304E-008	0.000000000000000E+000	1.040719313671581E+005	0.000000000000000E+000	0.000000000000000E+000	5.941603477468663E-005	5.941603477468663E-005	0.0000000E+000	1.000000000000000E+000	1.7383547E-005
2	1	0	1	0	0	1	6.148061864827469E+002	1.5998993E+000	1.5992568E+000	1.073836206458509E-002	2.1497156E-004	1.5539101E-004	41	0.0000000E+000	5.971432478367610E-005	2	9.562670578223676E-008	0.000000000000000E+000	6.401761600844179E+004	0.000000000000000E+000	0.000000000000000E+000	5.971432478367610E-005	5.971432478367610E-005	0.0000000E+000	1.000000000000000E+000	1.7173397E-005
2	1	0	1	0	0	1	6.149061864802206E+002	1.5998993E+000	1.6010332E+000	1.061448713578282E-002	2.1603302E-004	1.5645246E-004	41	0.0000000E+000	6.000917083939486E-005	2	9.609876410950243E-008	0.000000000000000E+000	1.365957848855184E+005	0.000000000000000E+000	0.000000000000000E+000	6.000917083939486E-005	6.000917083939486E-005	0.0000000E+000	1.000000000000000E+000	1.6994147E-005
2	1	0	1	0	0	1	6.150061864776944E+002	1.5998993E+000	1.6012433E+000	1.049193217605351E-002	2.1708221E-004	1.5750165E-004	41	0.0000000E+000	6.030061336382965E-005	2	9.656543448670900E-008	0.000000000000000E+000	1.582805343422357E+005	0.000000000000000E+000	0.000000000000000E+000	6.030061336382965E-005	6.030061336382965E-005	0.0000000E+000	1.000000000000000E+000	1.6800135E-005
2	1	0	1	0	0	1	6.151061864751682E+002	1.5998993E+000	1.6001774E+000	1.038820911571381E-002	2.1812103E-004	1.5854047E-004	41	0.0000000E+000	6.058917380060950E-005	2	9.702718237827455E-008	0.000000000000000E+000	8.949094106455344E+004	0.000000000000000E+000	0.000000000000000E+000	6.058917380060950E-005	6.058917380060950E-005	0.0000000E+000	1.000000000000000E+000	1.6622978E-005
2	1	0	1	0	0	1	6.152061864726420E+002	1.5998993E+000	1.6002997E+000	1.028774367831645E-002	2.1914981E-004	1.5956924E-004	41	0.0000000E+000	6.087494512030390E-005	2	9.748450214002124E-008	0.000000000000000E+000	9.466332574092029E+004	0.000000000000000E+000	0.000000000000000E+000	6.087494512030390E-005	6.087494512030390E-005	0.0000000E+000	1.000000000000000E+000	1.6463473E-005
2	1	0	1	0	0	1	6.153061864701158E+002	1.5998993E+000	1.5998374E+000	1.018003701418635E-002	2.2016780E-004	1.6058725E-004	41	0.0000000E+000	6.115772521297913E-005	2	9.793690431458460E-008	0.000000000000000E+000	7.927296157353568E+004	0.000000000000000E+000	0.000000000000000E+000	6.115772521297913E-005	6.115772521297913E-005	0.0000000E+000	1.000000000000000E+000	1.6286403E-005
2	1	0	1	0	0	1	6.154061864675896E+002	1.5998993E+000	1.6002958E+000	1.007065851055086E-002	2.2117487E-004	1.6159432E-004	41	0.0000000E+000	6.143746557225111E-005	2	9.838457163160768E-008	0.000000000000000E+000	9.537600034528335E+004	0.000000000000000E+000	0.000000000000000E+000	6.143746557225111E-005	6.143746557225111E-005	0.0000000E+000	1.000000000000000E+000	1.6116031E-005
2	1	0	1	0	0	1	6.155061864650634E+002	1.5998993E+000	1.6008154E+000	9.981871522963044E-003	2.2217305E-004	1.6259249E-004	41	0.0000000E+000	6.171473614813294E-005	2	9.882843064371127E-008	0.000000000000000E+000	1.234744021288208E+005	0.000000000000000E+000	0.000000000000000E+000	6.171473614813294E-005	6.171473614813294E-005	0.0000000E+000	1.000000000000000E+000	1.5979134E-005
2	1	0	1	0	0	1	6.156061864625372E+002	1.5998993E+000	1.6014688E+000	9.890195397660145E-003	2.2316207E-004	1.6358151E-004	41	0.0000000E+000	6.198946418104848E-005	2	9.926839901732253E-008	0.000000000000000E+000	1.947382850849354E+005	0.000000000000000E+000	0.000000000000000E+000	6.198946418104848E-005	6.198946418104848E-005	0.0000000E+000	1.000000000000000E+000	1.5838839E-005
2	1	0	1	0	0	1	6.157061864600109E+002	1.5998993E+000	1.5997305E+000	9.811910718679422E-003	2.2414327E-004	1.6456271E-004	41	0.0000000E+000	6.226201751107711E-005	2	9.970441088996687E-008	0.000000000000000E+000	7.771233599844686E+004	0.000000000000000E+000	0.000000000000000E+000	6.226201751107711E-005	6.226201751107711E-005	0.0000000E+000	1.000000000000000E+000	1.5696412E-005
2	1	0	1	0	0	1	6.158061864574847E+002	1.5998993E+000	1.5999253E+000	9.717260846868164E-003	2.2511500E-004	1.6553444E-004	41	0.0000000E+000	6.253194341196728E-005	2	1.001362721624245E-007	0.000000000000000E+000	8.370202822305012E+004	0.000000000000000E+000	0.000000000000000E+000	6.253194341196728E-005	6.253194341196728E-005	0.0000000E+000	1.000000000000000E+000	1.5546892E-005
2	1	0	1	0	0	1	6.159061864549585E+002	1.5998993E+000	1.6009185E+000	9.626906711608180E-003	2.2607768E-004	1.6649712E-004	41	0.0000000E+000	6.279935506528190E-005	2	1.005643764337330E-007	0.000000000000000E+000	1.332825230349056E+005	0.000000000000000E+000	0.000000000000000E+000	6.279935506528190E-005	6.279935506528190E-005	0.0000000E+000	1.000000000000000E+000	1.5411893E-005
2	1	0	1	0	0	1	6.160061864524323E+002	1.5998993E+000	1.5995891E+000	9.526403779163958E-003	2.2703032E-004	1.6744976E-004	41	0.0000000E+000	6.306397760151107E-005	2	1.009876637607925E-007	0.000000000000000E+000	7.503519771764247E+004	0.000000000000000E+000	0.000000000000000E+000	6.306397760151107E-005	6.306397760151107E-005	0.0000000E+000	1.000000000000000E+000	1.5238332E-005
2	1	0	1	0	0	1	6.161061864499061E+002	1.5998993E+000	1.6003876E+000	9.448733290657402E-003	2.2797519E-004	1.6839465E-004	41	0.0000000E+000	6.332644564584672E-005	2	1.014077143573204E-007	0.000000000000000E+000	1.023601468074043E+005	0.000000000000000E+000	0.000000000000000E+000	6.332644564584672E-005	6.332644564584672E-005	0.0000000E+000	1.000000000000000E+000	1.5121635E-005
2	1	0	1	0	0	1	6.162061864473799E+002	1.5998993E+000	1.6003990E+000	9.378497995436164E-003	2.2891305E-004	1.6933249E-004	41	0.0000000E+000	6.358695726602388E-005	2	1.018246368982561E-007	0.000000000000000E+000	1.033120896488263E+005	0.000000000000000E+000	0.000000000000000E+000	6.358695726602388E-005	6.358695726602388E-005	0.0000000E+000	1.000000000000000E+000	1.5009339E-005
2	1	0	1	0	0	1	6.163061864448537E+002	1.5998993E+000	1.5995586E+000	9.307230351492723E-003	2.2984378E-004	1.7026321E-004	41	0.0000000E+000	6.384549225104919E-005	2	1.022381787548452E-007	0.000000000000000E+000	7.520651033349929E+004	0.000000000000000E+000	0.000000000000000E+000	6.384549225104919E-005	6.384549225104919E-005	0.0000000E+000	1.000000000000000E+000	1.4887461E-005
2	1	0	1	0	0	1	6.164061864423275E+002	1.5998993E+000	1.6003571E+000	9.224711280316128E-003	2.3076624E-004	1.7118569E-004	41	0.0000000E+000	6.410173530942603E-005	2	1.026482591412835E-007	0.000000000000000E+000	1.022127666017172E+005	0.000000000000000E+000	0.000000000000000E+000	6.410173530942603E-005	6.410173530942603E-005	0.0000000E+000	1.000000000000000E+000	1.4762832E-005
2	1	0	1	0	0	1	6.165061864398012E+002	1.5998993E+000	1.6003035E+000	9.150407977402186E-003	2.3168129E-004	1.7210073E-004	41	0.0000000E+000	6.435591280428018E-005	2	1.030550202837213E-007	0.000000000000000E+000	1.002415664323413E+005	0.000000000000000E+000	0.000000000000000E+000	6.435591280428018E-005	6.435591280428018E-005	0.0000000E+000	1.000000000000000E+000	1.4643430E-005
2	1	0	1	0	0	1	6.166061864372750E+002	1.5998993E+000	1.6003685E+000	9.078580802306523E-003	2.3258914E-004	1.7300858E-004	41	0.0000000E+000	6.460809345298910E-005	2	1.034586022501631E-007	0.000000000000000E+000	1.035450347914966E+005	0.000000000000000E+000	0.000000000000000E+000	6.460809345298910E-005	6.460809345298910E-005	0.0000000E+000	1.000000000000000E+000	1.4529075E-005
2	1	0	1	0	0	1	6.167061864347488E+002	1.5998993E+000	1.5998144E+000	9.008701156824825E-003	2.3349001E-004	1.7390946E-004	41	0.0000000E+000	6.485833788853290E-005	2	1.038589469054141E-007	0.000000000000000E+000	8.337900555457071E+004	0.000000000000000E+000	0.000000000000000E+000	6.485833788853290E-005	6.485833788853290E-005	0.0000000E+000	1.000000000000000E+000	1.4412250E-005
2	1	0	1	0	0	1	6.168061864322226E+002	1.5998993E+000	1.6002347E+000	8.934644985944033E-003	2.3438348E-004	1.7480292E-004	41	0.0000000E+000	6.510652080275270E-005	2	1.042560978283437E-007	0.000000000000000E+000	9.847989444173784E+004	0.000000000000000E+000	0.000000000000000E+000	6.510652080275270E-005	6.510652080275270E-005	0.0000000E+000	1.000000000000000E+000	1.4297530E-005
2	1	0	1	0	0	1	6.169061864296964E+002	1.5998993E+000	1.6007582E+000	8.871554022654854E-003	2.3527064E-004	1.7569007E-004	41	0.0000000E+000	6.535295344494641E-005	2	1.046505768998320E-007	0.000000000000000E+000	1.267235847650480E+005	0.000000000000000E+000	0.000000000000000E+000	6.535295344494641E-005	6.535295344494641E-005	0.0000000E+000	1.000000000000000E+000	1.4201213E-005
2	1	0	1	0	0	1	6.170061864271702E+002	1.5998993E+000	1.6012815E+000	8.799938943236996E-003	2.3615062E-004	1.7657007E-004	41	0.0000000E+000	6.559739732539226E-005	2	1.050420003691725E-007	0.000000000000000E+000	1.771258107241301E+005	0.000000000000000E+000	0.000000000000000E+000	6.559739732539226E-005	6.559739732539226E-005	0.0000000E+000	1.000000000000000E+000	1.4091180E-005
2	1	0	1	0	0	1	6.171061864246440E+002	1.5998993E+000	1.6001316E+000	8.743927234783760E-003	2.3702501E-004	1.7744445E-004	41	0.0000000E+000	6.584028091714972E-005	2	1.054306460869696E-007	0.000000000000000E+000	9.545414815198552E+004	0.000000000000000E+000	0.000000000000000E+000	6.584028091714972E-005	6.584028091714972E-005	0.0000000E+000	1.000000000000000E+000	1.3991435E-005
2	1	0	1	0	0	1	6.172061864221178E+002	1.5998993E+000	1.6009606E+000	8.674415480345449E-003	2.3789245E-004	1.7831191E-004	41	0.0000000E+000	6.608124042233810E-005	2	1.058164127639348E-007	0.000000000000000E+000	1.438156990057867E+005	0.000000000000000E+000	0.000000000000000E+000	6.608124042233810E-005	6.608124042233810E-005	0.0000000E+000	1.000000000000000E+000	1.3887397E-005
2	1	0	1	0	0	1	6.173061864195915E+002	1.5998993E+000	1.5998908E+000	8.618041185662145E-003	2.3875426E-004	1.7917370E-004	41	0.0000000E+000	6.632062751224209E-005	2	1.061994059734456E-007	0.000000000000000E+000	8.765058588407750E+004	0.000000000000000E+000	0.000000000000000E+000	6.632062751224209E-005	6.632062751224209E-005	0.0000000E+000	1.000000000000000E+000	1.3787925E-005
2	1	0	1	0	0	1	6.174061864170653E+002	1.5998993E+000	1.5995127E+000	8.559113482013346E-003	2.3961018E-004	1.8002962E-004	41	0.0000000E+000	6.655838155388156E-005	2	1.065796965816365E-007	0.000000000000000E+000	7.724217274197970E+004	0.000000000000000E+000	0.000000000000000E+000	6.655838155388156E-005	6.655838155388156E-005	0.0000000E+000	1.000000000000000E+000	1.3690411E-005
2	1	0	1	0	0	1	6.175061864145391E+002	1.5998993E+000	1.5997534E+000	8.490269188769162E-003	2.4045921E-004	1.8087865E-004	41	0.0000000E+000	6.679422363554797E-005	2	1.069569857488865E-007	0.000000000000000E+000	8.403607930152933E+004	0.000000000000000E+000	0.000000000000000E+000	6.679422363554797E-005	6.679422363554797E-005	0.0000000E+000	1.000000000000000E+000	1.3582337E-005
2	1	0	1	0	0	1	6.176061864120129E+002	1.5998993E+000	1.5998565E+000	8.432264996692501E-003	2.4130243E-004	1.8172187E-004	41	0.0000000E+000	6.702845287994323E-005	2	1.073317189270520E-007	0.000000000000000E+000	8.748342543879045E+004	0.000000000000000E+000	0.000000000000000E+000	6.702845287994323E-005	6.702845287994323E-005	0.0000000E+000	1.000000000000000E+000	1.3490414E-005
2	1	0	1	0	0	1	6.177061864094867E+002	1.5998993E+000	1.6003035E+000	8.389668814837936E-003	2.4214140E-004	1.8256083E-004	41	0.0000000E+000	6.726149776012686E-005	2	1.077046614716198E-007	0.000000000000000E+000	1.047673415271970E+005	0.000000000000000E+000	0.000000000000000E+000	6.726149776012686E-005	6.726149776012686E-005	0.0000000E+000	1.000000000000000E+000	1.3426016E-005
2	1	0	1	0	0	1	6.178061864069605E+002	1.5998993E+000	1.6004105E+000	8.323573471046980E-003	2.4297375E-004	1.8339319E-004	41	0.0000000E+000	6.749270748211224E-005	2	1.080746919294685E-007	0.000000000000000E+000	1.102272195843375E+005	0.000000000000000E+000	0.000000000000000E+000	6.749270748211224E-005	6.749270748211224E-005	0.0000000E+000	1.000000000000000E+000	1.3321134E-005
2	1	0	1	0	0	1	6.179061864044343E+002	1.5998993E+000	1.5999634E+000	8.266386389732344E-003	2.4380039E-004	1.8421984E-004	41	0.0000000E+000	6.772233266221720E-005	2	1.084420838194606E-007	0.000000000000000E+000	9.195386743294688E+004	0.000000000000000E+000	0.000000000000000E+000	6.772233266221720E-005	6.772233266221720E-005	0.0000000E+000	1.000000000000000E+000	1.3225916E-005
2	1	0	1	0	0	1	6.180061864019081E+002	1.5998993E+000	1.5992262E+000	8.225966228172182E-003	2.4462299E-004	1.8504243E-004	41	0.0000000E+000	6.795083006889196E-005	2	1.088075028671513E-007	0.000000000000000E+000	7.219160443979494E+004	0.000000000000000E+000	0.000000000000000E+000	6.795083006889196E-005	6.795083006889196E-005	0.0000000E+000	1.000000000000000E+000	1.3155181E-005
2	1	0	1	0	0	1	6.181061863993818E+002	1.5998993E+000	1.6000705E+000	8.167092512361696E-003	2.4543970E-004	1.8585914E-004	41	0.0000000E+000	6.817769442730220E-005	2	1.091705018292209E-007	0.000000000000000E+000	9.646710539380225E+004	0.000000000000000E+000	0.000000000000000E+000	6.817769442730220E-005	6.817769442730220E-005	0.0000000E+000	1.000000000000000E+000	1.3067924E-005
2	1	0	1	0	0	1	6.182061863968556E+002	1.5998993E+000	1.5999941E+000	8.124135128222382E-003	2.4625211E-004	1.8667155E-004	41	0.0000000E+000	6.840336229490477E-005	2	1.095315690776801E-007	0.000000000000000E+000	9.396435461363589E+004	0.000000000000000E+000	0.000000000000000E+000	6.840336229490477E-005	6.840336229490477E-005	0.0000000E+000	1.000000000000000E+000	1.2998568E-005
2	1	0	1	0	0	1	6.183061863943294E+002	1.5998993E+000	1.6002730E+000	8.074294217862182E-003	2.4705954E-004	1.8747899E-004	41	0.0000000E+000	6.862765177275933E-005	2	1.098904934762163E-007	0.000000000000000E+000	1.055022239490867E+005	0.000000000000000E+000	0.000000000000000E+000	6.862765177275933E-005	6.862765177275933E-005	0.0000000E+000	1.000000000000000E+000	1.2921075E-005
2	1	0	1	0	0	1	6.184061863918032E+002	1.5998993E+000	1.5996006E+000	8.019542395137254E-003	2.4786149E-004	1.8828093E-004	41	0.0000000E+000	6.885041329951491E-005	2	1.102468229377159E-007	0.000000000000000E+000	8.223108009125655E+004	0.000000000000000E+000	0.000000000000000E+000	6.885041329951491E-005	6.885041329951491E-005	0.0000000E+000	1.000000000000000E+000	1.2828064E-005
2	1	0	1	0	0	1	6.185061863892770E+002	1.5998993E+000	1.6005595E+000	7.967424668371678E-003	2.4865824E-004	1.8907768E-004	41	0.0000000E+000	6.907173176134368E-005	2	1.106010562983540E-007	0.000000000000000E+000	1.209846559861622E+005	0.000000000000000E+000	0.000000000000000E+000	6.907173176134368E-005	6.907173176134368E-005	0.0000000E+000	1.000000000000000E+000	1.2752337E-005
2	1	0	1	0	0	1	6.186061863867508E+002	1.5998993E+000	1.5999100E+000	7.921737569384274E-003	2.4945042E-004	1.8986985E-004	41	0.0000000E+000	6.929178097278863E-005	2	1.109531152368202E-007	0.000000000000000E+000	9.222714608529671E+004	0.000000000000000E+000	0.000000000000000E+000	6.929178097278863E-005	6.929178097278863E-005	0.0000000E+000	1.000000000000000E+000	1.2674067E-005
2	1	0	1	0	0	1	6.187061863842246E+002	1.5998993E+000	1.6004106E+000	7.877657128497952E-003	2.5023817E-004	1.9065762E-004	41	0.0000000E+000	6.951060539803520E-005	2	1.113033241622861E-007	0.000000000000000E+000	1.135289342291230E+005	0.000000000000000E+000	0.000000000000000E+000	6.951060539803520E-005	6.951060539803520E-005	0.0000000E+000	1.000000000000000E+000	1.2607486E-005
2	1	0	1	0	0	1	6.188061863816984E+002	1.5998993E+000	1.5995547E+000	7.834011573344457E-003	2.5102159E-004	1.9144102E-004	41	0.0000000E+000	6.972821716367939E-005	2	1.116514060756440E-007	0.000000000000000E+000	8.203044990922952E+004	0.000000000000000E+000	0.000000000000000E+000	6.972821716367939E-005	6.972821716367939E-005	0.0000000E+000	1.000000000000000E+000	1.2530930E-005
2	1	0	1	0	0	1	6.189061863791721E+002	1.5998993E+000	1.6003761E+000	7.790486159734419E-003	2.5180064E-004	1.9222006E-004	41	0.0000000E+000	6.994461626972124E-005	2	1.119977260393229E-007	0.000000000000000E+000	1.124797211432776E+005	0.000000000000000E+000	0.000000000000000E+000	6.994461626972124E-005	6.994461626972124E-005	0.0000000E+000	1.000000000000000E+000	1.2467708E-005
2	1	0	1	0	0	1	6.190061863766459E+002	1.5998993E+000	1.5997342E+000	7.744982943870125E-003	2.5257512E-004	1.9299457E-004	41	0.0000000E+000	7.015975825197529E-005	2	1.123418960234208E-007	0.000000000000000E+000	8.768224439919340E+004	0.000000000000000E+000	0.000000000000000E+000	7.015975825197529E-005	7.015975825197529E-005	0.0000000E+000	1.000000000000000E+000	1.2389914E-005
2	1	0	1	0	0	1	6.191061863741197E+002	1.5998993E+000	1.6002845E+000	7.697981550358224E-003	2.5334492E-004	1.9376437E-004	41	0.0000000E+000	7.037359056185879E-005	2	1.126840885453759E-007	0.000000000000000E+000	1.087175809900429E+005	0.000000000000000E+000	0.000000000000000E+000	7.037359056185879E-005	7.037359056185879E-005	0.0000000E+000	1.000000000000000E+000	1.2318960E-005
2	1	0	1	0	0	1	6.192061863715935E+002	1.5998993E+000	1.5999826E+000	7.661335851065820E-003	2.5411104E-004	1.9453050E-004	41	0.0000000E+000	7.058640423767630E-005	2	1.130245867278303E-007	0.000000000000000E+000	9.654157749120738E+004	0.000000000000000E+000	0.000000000000000E+000	7.058640423767630E-005	7.058640423767630E-005	0.0000000E+000	1.000000000000000E+000	1.2258004E-005
2	1	0	1	0	0	1	6.193061863690673E+002	1.5998993E+000	1.6009644E+000	7.622610389254984E-003	2.5487333E-004	1.9529276E-004	41	0.0000000E+000	7.079814268864639E-005	2	1.133635724556602E-007	0.000000000000000E+000	1.544374688034697E+005	0.000000000000000E+000	0.000000000000000E+000	7.079814268864639E-005	7.079814268864639E-005	0.0000000E+000	1.000000000000000E+000	1.2203528E-005
2	1	0	1	0	0	1	6.194061863665411E+002	1.5998993E+000	1.5999901E+000	7.581302193924791E-003	2.5563146E-004	1.9605090E-004	41	0.0000000E+000	7.100873719739157E-005	2	1.137005215909733E-007	0.000000000000000E+000	9.739710493374082E+004	0.000000000000000E+000	0.000000000000000E+000	7.100873719739157E-005	7.100873719739157E-005	0.0000000E+000	1.000000000000000E+000	1.2130009E-005
2	1	0	1	0	0	1	6.195061863640149E+002	1.5998993E+000	1.5997916E+000	7.533341329544779E-003	2.5638478E-004	1.9680422E-004	41	0.0000000E+000	7.121799373837549E-005	2	1.140352884571110E-007	0.000000000000000E+000	9.081629065381605E+004	0.000000000000000E+000	0.000000000000000E+000	7.121799373837549E-005	7.121799373837549E-005	0.0000000E+000	1.000000000000000E+000	1.2051776E-005
2	1	0	1	0	0	1	6.195807863621303E+002	1.5998993E+000	1.6006167E+000	7.497562251575579E-003	2.5694410E-004	1.9736354E-004	41	0.0000000E+000	7.137335968663034E-005	2	1.142839697874887E-007	0.000000000000000E+000	1.285963420914576E+005	0.000000000000000E+000	0.000000000000000E+000	7.137335968663034E-005	7.137335968663034E-005	0.0000000E+000	1.000000000000000E+000	1.2000723E-005
2	0	1	0	1	0	2	6.200165863511211E+002	1.9995773E-001	1.9476980E-001	-2.500894378157809E-001	-1.0898898E-004	8.8374567E-005	41	0.0000000E+000	-3.027471393579617E-005	3	1.142839697874887E-007	-5.896599969531981E-009	1.285963420914576E+005	0.000000000000000E+000	3.027471393579617E-005	0.000000000000000E+000	3.027471393579617E-005	0.0000000E+000	1.000000000000000E+000	-4.8709870E-005
2	0	1	0	0	0	2	6.201165863485949E+002	1.9995773E-001	2.0247170E-001	1.387821355107008E-002	-1.0760115E-004	8.9762383E-005	41	0.0000000E+000	-2.988920944820469E-005	3	1.143620235377176E-007	-5.896599969531981E-009	1.845039442322728E+002	0.000000000000000E+000	2.988920944820469E-005	0.000000000000000E+000	2.988920944820469E-005	0.0000000E+000	1.000000000000000E+000	2.8099455E-006
2	0	0	0	0	0	2	6.202165863460687E+002	1.9995773E-001	2.0088242E-001	-2.398081807242125E-002	-1.0999924E-004	8.7364300E-005	41	0.0000000E+000	-3.055534357877655E-005	3	1.143620235377176E-007	-6.030414605688423E-009	1.845039442322728E+002	1.822247232217079E+004	3.055534357877655E-005	0.000000000000000E+000	3.055534357877655E-005	0.0000000E+000	1.000000000000000E+000	-4.8173247E-006
2	0	0	0	0	0	2	6.203165863435424E+002	1.9995773E-001	2.0121098E-001	-2.339237368715840E-002	-1.1233847E-004	8.5025065E-005	41	0.0000000E+000	-3.120513105790855E-005	3	1.143620235377176E-007	-6.161158978327759E-009	1.845039442322728E+002	1.765613749175843E+004	3.120513105790855E-005	0.000000000000000E+000	3.120513105790855E-005	0.0000000E+000	1.000000000000000E+000	-4.7068024E-006
2	0	0	0	0	0	2	6.204165863410162E+002	1.9995773E-001	1.9982035E-001	-1.954166255705062E-002	-1.1429264E-004	8.3070903E-005	41	0.0000000E+000	-3.174795387571470E-005	3	1.143620235377176E-007	-6.269626026256377E-009	1.845039442322728E+002	2.290450317831928E+004	3.174795387571470E-005	0.000000000000000E+000	3.174795387571470E-005	0.0000000E+000	1.000000000000000E+000	-3.9048218E-006
2	0	0	0	0	0	2	6.205165863384900E+002	1.9995773E-001	1.9989294E-001	-1.715020890347663E-002	-1.1600766E-004	8.1355880E-005	41	0.0000000E+000	-3.222434922160270E-005	3	1.143620235377176E-007	-6.364854091660747E-009	1.845039442322728E+002	2.291475723505198E+004	3.222434922160270E-005	0.000000000000000E+000	3.222434922160270E-005	0.0000000E+000	1.000000000000000E+000	-3.4282057E-006
2	0	0	0	0	0	2	6.206165863359638E+002	1.9995773E-001	2.0011452E-001	-1.546872643940150E-002	-1.1755453E-004	7.9809004E-005	41	0.0000000E+000	-3.265403696180631E-005	3	1.143620235377176E-007	-6.450840846855699E-009	1.845039442322728E+002	2.225418324374509E+004	3.265403696180631E-005	0.000000000000000E+000	3.265403696180631E-005	0.0000000E+000	1.000000000000000E+000	-3.0955168E-006
2	0	0	0	0	0	2	6.207165863334376E+002	1.9995773E-001	1.9930078E-001	-1.417017123475670E-002	-1.1897155E-004	7.8391990E-005	41	0.0000000E+000	-3.304765212103828E-005	3	1.143620235377176E-007	-6.529288655461705E-009	1.845039442322728E+002	2.656364238308164E+004	3.304765212103828E-005	0.000000000000000E+000	3.304765212103828E-005	0.0000000E+000	1.000000000000000E+000	-2.8241261E-006
2	0	0	0	0	0	2	6.208165863309114E+002	1.9995773E-001	2.0044689E-001	-1.306249799579384E-002	-1.2027780E-004	7.7085737E-005	41	0.0000000E+000	-3.341050008505893E-005	3	1.143620235377176E-007	-6.602020400958669E-009	1.845039442322728E+002	2.143098591956531E+004	3.341050008505893E-005	0.000000000000000E+000	3.341050008505893E-005	0.0000000E+000	1.000000000000000E+000	-2.6183370E-006
2	0	0	0	0	0	2	6.209165863283852E+002	1.9995773E-001	2.0026733E-001	-1.215297591872513E-002	-1.2149310E-004	7.5870441E-005	41	0.0000000E+000	-3.374808228626433E-005	3	1.143620235377176E-007	-6.669627086986148E-009	1.845039442322728E+002	2.235202174243020E+004	3.374808228626433E-005	0.000000000000000E+000	3.374808228626433E-005	0.0000000E+000	1.000000000000000E+000	-2.4338440E-006
2	0	0	0	0	0	2	6.210165863258590E+002	1.9995773E-001	1.9970955E-001	-1.136509791016579E-002	-1.2262962E-004	7.4733936E-005	41	0.0000000E+000	-3.406377800274640E-005	3	1.143620235377176E-007	-6.732674536318461E-009	1.845039442322728E+002	2.510601165230271E+004	3.406377800274640E-005	0.000000000000000E+000	3.406377800274640E-005	0.0000000E+000	1.000000000000000E+000	-2.2697186E-006
2	0	0	0	0	0	2	6.211165863233327E+002	1.9995773E-001	2.0022532E-001	-1.064730627276004E-002	-1.2369434E-004	7.3669202E-005	41	0.0000000E+000	-3.435953759536560E-005	3	1.143620235377176E-007	-6.791893096410724E-009	1.845039442322728E+002	2.292761569825246E+004	3.435953759536560E-005	0.000000000000000E+000	3.435953759536560E-005	0.0000000E+000	1.000000000000000E+000	-2.1318604E-006
2	0	0	0	0	0	2	6.212165863208065E+002	1.9995773E-001	2.0060353E-001	-1.002818390727048E-002	-1.2469715E-004	7.2666386E-005	41	0.0000000E+000	-3.463809763262462E-005	3	1.143620235377176E-007	-6.847773223149139E-009	1.845039442322728E+002	2.161309581300528E+004	3.463809763262462E-005	0.000000000000000E+000	3.463809763262462E-005	0.0000000E+000	1.000000000000000E+000	-2.0116890E-006
2	0	0	0	0	0	2	6.213165863182803E+002	1.9995773E-001	1.9967136E-001	-9.459916966035986E-003	-1.2564314E-004	7.1720395E-005	41	0.0000000E+000	-3.490087288405953E-005	3	1.143620235377176E-007	-6.900241914417805E-009	1.845039442322728E+002	2.591644419408065E+004	3.490087288405953E-005	0.000000000000000E+000	3.490087288405953E-005	0.0000000E+000	1.000000000000000E+000	-1.8888745E-006
2	0	0	0	0	0	2	6.214165863157541E+002	1.9995773E-001	2.0074488E-001	-8.949525067582759E-003	-1.2653810E-004	7.0825437E-005	41	0.0000000E+000	-3.514947214474280E-005	3	1.143620235377176E-007	-6.950146943725138E-009	1.845039442322728E+002	2.140989944816587E+004	3.514947214474280E-005	0.000000000000000E+000	3.514947214474280E-005	0.0000000E+000	1.000000000000000E+000	-1.7965714E-006
2	0	0	0	0	0	2	6.215165863132279E+002	1.9995773E-001	2.0012981E-001	-8.499662440270190E-003	-1.2738806E-004	6.9975475E-005	41	0.0000000E+000	-3.538557292712438E-005	3	1.143620235377176E-007	-6.997397747734624E-009	1.845039442322728E+002	2.402531784380351E+004	3.538557292712438E-005	0.000000000000000E+000	3.538557292712438E-005	0.0000000E+000	1.000000000000000E+000	-1.7010358E-006
2	0	0	0	0	0	2	6.216165863107017E+002	1.9995773E-001	2.0001137E-001	-8.065278121270281E-003	-1.2819459E-004	6.9168949E-005	41	0.0000000E+000	-3.560960774646244E-005	3	1.143620235377176E-007	-7.042207259453055E-009	1.845039442322728E+002	2.472204576378939E+004	3.560960774646244E-005	0.000000000000000E+000	3.560960774646244E-005	0.0000000E+000	1.000000000000000E+000	-1.6131473E-006
2	0	0	0	0	0	2	6.217165863081755E+002	1.9995773E-001	2.0042016E-001	-7.663683883845807E-003	-1.2896096E-004	6.8402580E-005	41	0.0000000E+000	-3.582248811855809E-005	3	1.143620235377176E-007	-7.084872776863615E-009	1.845039442322728E+002	2.306912411876070E+004	3.582248811855809E-005	0.000000000000000E+000	3.582248811855809E-005	0.0000000E+000	1.000000000000000E+000	-1.5359567E-006
2	0	0	0	0	0	2	6.218165863056493E+002	1.9995773E-001	2.0120333E-001	-7.329219142906379E-003	-1.2969389E-004	6.7669658E-005	41	0.0000000E+000	-3.602607749700029E-005	3	1.143620235377176E-007	-7.125835638033922E-009	1.845039442322728E+002	2.037476497194827E+004	3.602607749700029E-005	0.000000000000000E+000	3.602607749700029E-005	0.0000000E+000	1.000000000000000E+000	-1.4746633E-006
2	0	0	0	0	0	2	6.219165863031230E+002	1.9995773E-001	1.9985856E-001	-6.999197281897074E-003	-1.3039380E-004	6.6969740E-005	41	0.0000000E+000	-3.622049916884862E-005	3	1.143620235377176E-007	-7.164692473627497E-009	1.845039442322728E+002	2.589659870825781E+004	3.622049916884862E-005	0.000000000000000E+000	3.622049916884862E-005	0.0000000E+000	1.000000000000000E+000	-1.3988495E-006
2	0	0	0	0	0	2	6.220165863005968E+002	1.9995773E-001	2.0015272E-001	-6.674637602642183E-003	-1.3106127E-004	6.6302273E-005	41	0.0000000E+000	-3.640590673765271E-005	3	1.143620235377176E-007	-7.201802303755796E-009	1.845039442322728E+002	2.460540946019220E+004	3.640590673765271E-005	0.000000000000000E+000	3.640590673765271E-005	0.0000000E+000	1.000000000000000E+000	-1.3359469E-006
2	0	0	0	0	0	2	6.221165862980706E+002	1.9995773E-001	2.0112310E-001	-6.404160300269718E-003	-1.3170169E-004	6.5661858E-005	41	0.0000000E+000	-3.658379985912082E-005	3	1.143620235377176E-007	-7.237580720436660E-009	1.845039442322728E+002	2.094807678734142E+004	3.658379985912082E-005	0.000000000000000E+000	3.658379985912082E-005	0.0000000E+000	1.000000000000000E+000	-1.2880246E-006
2	0	0	0	0	0	2	6.222165862955444E+002	1.9995773E-001	2.0011069E-001	-6.135529786348341E-003	-1.3231524E-004	6.5048305E-005	41	0.0000000E+000	-3.675423108183571E-005	3	1.143620235377176E-007	-7.271685829808116E-009	1.845039442322728E+002	2.503385590679327E+004	3.675423108183571E-005	0.000000000000000E+000	3.675423108183571E-005	0.0000000E+000	1.000000000000000E+000	-1.2277851E-006
2	0	0	0	0	0	2	6.223165862930182E+002	1.9995773E-001	2.0036285E-001	-5.859211119823161E-003	-1.3290116E-004	6.4462380E-005	41	0.0000000E+000	-3.691698819036698E-005	3	1.143620235377176E-007	-7.304296307321724E-009	1.845039442322728E+002	2.400998678208998E+004	3.691698819036698E-005	0.000000000000000E+000	3.691698819036698E-005	0.0000000E+000	1.000000000000000E+000	-1.1739683E-006
2	0	0	0	0	0	2	6.224165862904920E+002	1.9995773E-001	1.9997700E-001	-5.649588452652093E-003	-1.3346612E-004	6.3897423E-005	41	0.0000000E+000	-3.707392049060823E-005	3	1.143620235377176E-007	-7.335679157234581E-009	1.845039442322728E+002	2.589761036079299E+004	3.707392049060823E-005	0.000000000000000E+000	3.707392049060823E-005	0.0000000E+000	1.000000000000000E+000	-1.1297877E-006
2	0	0	0	0	0	2	6.225165862879658E+002	1.9995773E-001	2.0006485E-001	-5.442979263141752E-003	-1.3401042E-004	6.3353124E-005	41	0.0000000E+000	-3.722511488983096E-005	3	1.143620235377176E-007	-7.365927842464364E-009	1.845039442322728E+002	2.557070280071128E+004	3.722511488983096E-005	0.000000000000000E+000	3.722511488983096E-005	0.0000000E+000	1.000000000000000E+000	-1.0889488E-006
2	0	0	0	0	0	2	6.226165862854396E+002	1.9995773E-001	2.0058826E-001	-5.205417095683521E-003	-1.3453096E-004	6.2832587E-005	41	0.0000000E+000	-3.736970837861816E-005	3	1.143620235377176E-007	-7.394931598226593E-009	1.845039442322728E+002	2.335993547239545E+004	3.736970837861816E-005	0.000000000000000E+000	3.736970837861816E-005	0.0000000E+000	1.000000000000000E+000	-1.0441455E-006
2	0	0	0	0	0	2	6.227165862829133E+002	1.9995773E-001	2.0033993E-001	-5.004374081268900E-003	-1.3503140E-004	6.2332147E-005	41	0.0000000E+000	-3.750871959103581E-005	3	1.143620235377176E-007	-7.422781094550985E-009	1.845039442322728E+002	2.449121330180508E+004	3.750871959103581E-005	0.000000000000000E+000	3.750871959103581E-005	0.0000000E+000	1.000000000000000E+000	-1.0025759E-006
2	0	0	0	0	0	2	6.228165862803871E+002	1.9995773E-001	2.0054239E-001	-4.840879452414834E-003	-1.3551548E-004	6.1848063E-005	41	0.0000000E+000	-3.764318737214327E-005	3	1.143620235377176E-007	-7.449747584798868E-009	1.845039442322728E+002	2.371609201120893E+004	3.764318737214327E-005	0.000000000000000E+000	3.764318737214327E-005	0.0000000E+000	1.000000000000000E+000	-9.7080158E-007
2	0	0	0	0	0	2	6.229165862778609E+002	1.9995773E-001	2.0014127E-001	-4.657022695988420E-003	-1.3598119E-004	6.1382358E-005	41	0.0000000E+000	-3.777254985632478E-005	3	1.143620235377176E-007	-7.475638356154353E-009	1.845039442322728E+002	2.557383561624241E+004	3.777254985632478E-005	0.000000000000000E+000	3.777254985632478E-005	0.0000000E+000	1.000000000000000E+000	-9.3206239E-007
2	0	0	0	0	0	2	6.230165862753347E+002	1.9995773E-001	1.9991969E-001	-4.481884845066827E-003	-1.3642937E-004	6.0934170E-005	41	0.0000000E+000	-3.789704654385180E-005	3	1.143620235377176E-007	-7.500527694798110E-009	1.845039442322728E+002	2.676121051805648E+004	3.789704654385180E-005	0.000000000000000E+000	3.789704654385180E-005	0.0000000E+000	1.000000000000000E+000	-8.9601701E-007
2	0	0	0	0	0	2	6.231165862728085E+002	1.9995773E-001	2.0002283E-001	-4.322307323105651E-003	-1.3686161E-004	6.0501938E-005	41	0.0000000E+000	-3.801711096053218E-005	3	1.143620235377176E-007	-7.524543319392021E-009	1.845039442322728E+002	2.631802348902560E+004	3.801711096053218E-005	0.000000000000000E+000	3.801711096053218E-005	0.0000000E+000	1.000000000000000E+000	-8.6456015E-007
2	0	0	0	0	0	2	6.232165862702823E+002	1.9995773E-001	1.9994260E-001	-4.160024255979809E-003	-1.3727760E-004	6.0085935E-005	41	0.0000000E+000	-3.813266731514077E-005	3	1.143620235377176E-007	-7.547647957807389E-009	1.845039442322728E+002	2.680662529328861E+004	3.813266731514077E-005	0.000000000000000E+000	3.813266731514077E-005	0.0000000E+000	1.000000000000000E+000	-8.3176610E-007
2	0	0	0	0	0	2	6.233165862677561E+002	1.9995773E-001	2.0001519E-001	-4.035857276991003E-003	-1.3768119E-004	5.9682348E-005	41	0.0000000E+000	-3.824477466373031E-005	3	1.143620235377176E-007	-7.570071130129138E-009	1.845039442322728E+002	2.651262723842688E+004	3.824477466373031E-005	0.000000000000000E+000	3.824477466373031E-005	0.0000000E+000	1.000000000000000E+000	-8.0723277E-007
2	0	0	0	0	0	2	6.234165862652299E+002	1.9995773E-001	2.0056151E-001	-3.871250277850784E-003	-1.3806831E-004	5.9295224E-005	41	0.0000000E+000	-3.835230927506926E-005	3	1.143620235377176E-007	-7.591638433999148E-009	1.845039442322728E+002	2.407858090085707E+004	3.835230927506926E-005	0.000000000000000E+000	3.835230927506926E-005	0.0000000E+000	1.000000000000000E+000	-7.7642380E-007
2	0	0	0	0	0	2	6.235165862627036E+002	1.9995773E-001	2.0027116E-001	-3.739308600779628E-003	-1.3844225E-004	5.8921294E-005	41	0.0000000E+000	-3.845617862276007E-005	3	1.143620235377176E-007	-7.612440468688397E-009	1.845039442322728E+002	2.541736348704257E+004	3.845617862276007E-005	0.000000000000000E+000	3.845617862276007E-005	0.0000000E+000	1.000000000000000E+000	-7.4887566E-007
2	0	0	0	0	0	2	6.236165862601774E+002	1.9995773E-001	2.0011452E-001	-3.637544231954962E-003	-1.3880600E-004	5.8557540E-005	41	0.0000000E+000	-3.855722146302770E-005	3	1.143620235377176E-007	-7.632660608006728E-009	1.845039442322728E+002	2.623034465061628E+004	3.855722146302770E-005	0.000000000000000E+000	3.855722146302770E-005	0.0000000E+000	1.000000000000000E+000	-7.2792540E-007
2	0	0	0	0	0	2	6.237165862576512E+002	1.9995773E-001	2.0008013E-001	-3.488888648338614E-003	-1.3915489E-004	5.8208650E-005	41	0.0000000E+000	-3.865413519734929E-005	3	1.143620235377176E-007	-7.652051120231702E-009	1.845039442322728E+002	2.646592343017790E+004	3.865413519734929E-005	0.000000000000000E+000	3.865413519734929E-005	0.0000000E+000	1.000000000000000E+000	-6.9805731E-007
2	0	0	0	0	0	2	6.238165862551250E+002	1.9995773E-001	1.9993496E-001	-3.374170991126449E-003	-1.3949230E-004	5.7871235E-005	41	0.0000000E+000	-3.874786165801599E-005	3	1.143620235377176E-007	-7.670790316340894E-009	1.845039442322728E+002	2.727507497230459E+004	3.874786165801599E-005	0.000000000000000E+000	3.874786165801599E-005	0.0000000E+000	1.000000000000000E+000	-6.7461474E-007
2	0	0	0	0	0	2	6.239165862525988E+002	1.9995773E-001	2.0073342E-001	-3.265770050231369E-003	-1.3981889E-004	5.7544657E-005	41	0.0000000E+000	-3.883857769121983E-005	3	1.143620235377176E-007	-7.689000056228023E-009	1.845039442322728E+002	2.367800302655997E+004	3.883857769121983E-005	0.000000000000000E+000	3.883857769121983E-005	0.0000000E+000	1.000000000000000E+000	-6.5554923E-007
2	0	0	0	0	0	2	6.240165862500726E+002	1.9995773E-001	2.0058061E-001	-3.157492915168404E-003	-1.4013464E-004	5.7228906E-005	41	0.0000000E+000	-3.892628632860980E-005	3	1.143620235377176E-007	-7.706592708378039E-009	1.845039442322728E+002	2.435502028308569E+004	3.892628632860980E-005	0.000000000000000E+000	3.892628632860980E-005	0.0000000E+000	1.000000000000000E+000	-6.3333187E-007
2	0	0	0	0	0	2	6.241165862475464E+002	1.9995773E-001	1.9995789E-001	-3.037159450352198E-003	-1.4043835E-004	5.6925193E-005	41	0.0000000E+000	-3.901065105714626E-005	3	1.143620235377176E-007	-7.723462101680541E-009	1.845039442322728E+002	2.733685984159540E+004	3.901065105714626E-005	0.000000000000000E+000	3.901065105714626E-005	0.0000000E+000	1.000000000000000E+000	-6.0730400E-007
2	0	0	0	0	0	2	6.242165862450202E+002	1.9995773E-001	2.0048891E-001	-2.945886258967224E-003	-1.4073294E-004	5.6630604E-005	41	0.0000000E+000	-3.909248132711378E-005	3	1.143620235377176E-007	-7.739868163317798E-009	1.845039442322728E+002	2.485014971670035E+004	3.909248132711378E-005	0.000000000000000E+000	3.909248132711378E-005	0.0000000E+000	1.000000000000000E+000	-5.9061750E-007
2	0	0	0	0	0	2	6.243165862424939E+002	1.9995773E-001	1.9972484E-001	-2.868844244629149E-003	-1.4101982E-004	5.6343717E-005	41	0.0000000E+000	-3.917217226343279E-005	3	1.143620235377176E-007	-7.755784422675149E-009	1.845039442322728E+002	2.873996606971951E+004	3.917217226343279E-005	0.000000000000000E+000	3.917217226343279E-005	0.0000000E+000	1.000000000000000E+000	-5.7297945E-007
2	0	0	0	0	0	2	6.244165862399677E+002	1.9995773E-001	2.0045453E-001	-2.760983204934744E-003	-1.4129592E-004	5.6067620E-005	41	0.0000000E+000	-3.924886590943462E-005	3	1.143620235377176E-007	-7.771158011676193E-009	1.845039442322728E+002	2.509945913382774E+004	3.924886590943462E-005	0.000000000000000E+000	3.924886590943462E-005	0.0000000E+000	1.000000000000000E+000	-5.5345163E-007
2	0	0	0	0	0	2	6.245165862374415E+002	1.9995773E-001	1.9972102E-001	-2.680629471316934E-003	-1.4156399E-004	5.5799559E-005	41	0.0000000E+000	-3.932332725121844E-005	3	1.143620235377176E-007	-7.786029507064001E-009	1.845039442322728E+002	2.887201266295056E+004	3.932332725121844E-005	0.000000000000000E+000	3.932332725121844E-005	0.0000000E+000	1.000000000000000E+000	-5.3537804E-007
2	0	0	0	0	0	2	6.246165862349153E+002	1.9995773E-001	2.0015654E-001	-2.591363371349872E-003	-1.4182313E-004	5.5540422E-005	41	0.0000000E+000	-3.939530971466510E-005	3	1.143620235377176E-007	-7.800437267865022E-009	1.845039442322728E+002	2.658582592542869E+004	3.939530971466510E-005	0.000000000000000E+000	3.939530971466510E-005	0.0000000E+000	1.000000000000000E+000	-5.1867835E-007
2	0	0	0	0	0	2	6.247165862323891E+002	1.9995773E-001	1.9987766E-001	-2.522870470071215E-003	-1.4207541E-004	5.5288136E-005	41	0.0000000E+000	-3.946538931308571E-005	3	1.143620235377176E-007	-7.814444614322704E-009	1.845039442322728E+002	2.808672998501419E+004	3.946538931308571E-005	0.000000000000000E+000	3.946538931308571E-005	0.0000000E+000	1.000000000000000E+000	-5.0426547E-007
2	0	0	0	0	0	2	6.248165862298629E+002	1.9995773E-001	1.9972102E-001	-2.432376875309276E-003	-1.4231865E-004	5.5044897E-005	41	0.0000000E+000	-3.953295567448042E-005	3	1.143620235377176E-007	-7.827939037170598E-009	1.845039442322728E+002	2.902443201718249E+004	3.953295567448042E-005	0.000000000000000E+000	3.953295567448042E-005	0.0000000E+000	1.000000000000000E+000	-4.8579682E-007
2	0	0	0	0	0	2	6.249165862273367E+002	1.9995773E-001	2.0029026E-001	-2.374553068540990E-003	-1.4255611E-004	5.4807442E-005	41	0.0000000E+000	-3.959891526190200E-005	3	1.143620235377176E-007	-7.841150100262792E-009	1.845039442322728E+002	2.607460848192474E+004	3.959891526190200E-005	0.000000000000000E+000	3.959891526190200E-005	0.0000000E+000	1.000000000000000E+000	-4.7559985E-007
2	0	0	0	0	0	2	6.250165862248105E+002	1.9995773E-001	2.0014891E-001	-2.323381197405987E-003	-1.4278844E-004	5.4575103E-005	41	0.0000000E+000	-3.966345401648947E-005	3	1.143620235377176E-007	-7.854067461664565E-009	1.845039442322728E+002	2.680299068255070E+004	3.966345401648947E-005	0.000000000000000E+000	3.966345401648947E-005	0.0000000E+000	1.000000000000000E+000	-4.6502223E-007
2	0	0	0	0	0	2	6.251165862222842E+002	1.9995773E-001	1.9948415E-001	-2.252546241506941E-003	-1.4301369E-004	5.4349850E-005	41	0.0000000E+000	-3.972602422032244E-005	3	1.143620235377176E-007	-7.866549225878210E-009	1.845039442322728E+002	3.063017257877320E+004	3.972602422032244E-005	0.000000000000000E+000	3.972602422032244E-005	0.0000000E+000	1.000000000000000E+000	-4.4934728E-007
2	0	0	0	0	0	2	6.252165862197580E+002	1.9995773E-001	2.0066847E-001	-2.167548375669875E-003	-1.4323044E-004	5.4133092E-005	41	0.0000000E+000	-3.978623479067915E-005	3	1.143620235377176E-007	-7.878631588853605E-009	1.845039442322728E+002	2.451709911590444E+004	3.978623479067915E-005	0.000000000000000E+000	3.978623479067915E-005	0.0000000E+000	1.000000000000000E+000	-4.3495862E-007
2	0	0	0	0	0	2	6.253165862172318E+002	1.9995773E-001	2.0008777E-001	-2.120633567450569E-003	-1.4344251E-004	5.3921030E-005	41	0.0000000E+000	-3.984514074141364E-005	3	1.143620235377176E-007	-7.890417949224083E-009	1.845039442322728E+002	2.723413117884572E+004	3.984514074141364E-005	0.000000000000000E+000	3.984514074141364E-005	0.0000000E+000	1.000000000000000E+000	-4.2431284E-007
2	0	0	0	0	0	2	6.254165862147056E+002	1.9995773E-001	1.9994642E-001	-2.096052166773006E-003	-1.4365211E-004	5.3711425E-005	41	0.0000000E+000	-3.990336457112181E-005	3	1.143620235377176E-007	-7.902059595440029E-009	1.845039442322728E+002	2.801827547085897E+004	3.990336457112181E-005	0.000000000000000E+000	3.990336457112181E-005	0.0000000E+000	1.000000000000000E+000	-4.1909811E-007
2	0	0	0	0	0	2	6.255165862121794E+002	1.9995773E-001	2.0066848E-001	-2.020041827345269E-003	-1.4385412E-004	5.3509422E-005	41	0.0000000E+000	-3.995947635202253E-005	3	1.143620235377176E-007	-7.913319461446376E-009	1.845039442322728E+002	2.462276747511392E+004	3.995947635202253E-005	0.000000000000000E+000	3.995947635202253E-005	0.0000000E+000	1.000000000000000E+000	-4.0535872E-007
2	0	0	0	0	0	2	6.256165862096532E+002	1.9995773E-001	2.0048127E-001	-1.966378927696501E-003	-1.4405076E-004	5.3312782E-005	41	0.0000000E+000	-4.001409858271167E-005	3	1.143620235377176E-007	-7.924270195394844E-009	1.845039442322728E+002	2.546431497079560E+004	4.001409858271167E-005	0.000000000000000E+000	4.001409858271167E-005	0.0000000E+000	1.000000000000000E+000	-3.9422213E-007
2	0	0	0	0	0	2	6.257165862071270E+002	1.9995773E-001	2.0032845E-001	-1.922496946761385E-003	-1.4424301E-004	5.3120533E-005	41	0.0000000E+000	-4.006750107995077E-005	3	1.143620235377176E-007	-7.934968235126533E-009	1.845039442322728E+002	2.619893279848907E+004	4.006750107995077E-005	0.000000000000000E+000	4.006750107995077E-005	0.0000000E+000	1.000000000000000E+000	-3.8513085E-007
2	0	0	0	0	0	2	6.258165862046008E+002	1.9995773E-001	1.9999608E-001	-1.868434687843546E-003	-1.4442985E-004	5.2933690E-005	41	0.0000000E+000	-4.011940190038228E-005	3	1.143620235377176E-007	-7.945348195967916E-009	1.845039442322728E+002	2.790082888502194E+004	4.011940190038228E-005	0.000000000000000E+000	4.011940190038228E-005	0.0000000E+000	1.000000000000000E+000	-3.7367963E-007
2	0	0	0	0	0	2	6.259165862020745E+002	1.9995773E-001	2.0058443E-001	-1.806650191079825E-003	-1.4461052E-004	5.2753025E-005	41	0.0000000E+000	-4.016958680747644E-005	3	1.143620235377176E-007	-7.955414506777470E-009	1.845039442322728E+002	2.510880463342295E+004	4.016958680747644E-005	0.000000000000000E+000	4.016958680747644E-005	0.0000000E+000	1.000000000000000E+000	-3.6238589E-007
2	0	0	0	0	0	2	6.260165861995483E+002	1.9995773E-001	1.9962934E-001	-1.801203003618866E-003	-1.4479064E-004	5.2572905E-005	41	0.0000000E+000	-4.021962013212031E-005	3	1.143620235377176E-007	-7.965402626183795E-009	1.845039442322728E+002	3.008073650919681E+004	4.021962013212031E-005	0.000000000000000E+000	4.021962013212031E-005	0.0000000E+000	1.000000000000000E+000	-3.5957297E-007
2	0	0	0	0	0	2	6.261165861970221E+002	1.9995773E-001	2.0072196E-001	-1.757503639906649E-003	-1.4496638E-004	5.2397154E-005	41	0.0000000E+000	-4.026843978661214E-005	3	1.143620235377176E-007	-7.975201803126918E-009	1.845039442322728E+002	2.458839950255730E+004	4.026843978661214E-005	0.000000000000000E+000	4.026843978661214E-005	0.0000000E+000	1.000000000000000E+000	-3.5276958E-007
2	0	0	0	0	0	2	6.262165861944959E+002	1.9995773E-001	2.0006485E-001	-1.719749208539727E-003	-1.4513836E-004	5.2225179E-005	41	0.0000000E+000	-4.031621049054793E-005	3	1.143620235377176E-007	-7.984759041979596E-009	1.845039442322728E+002	2.767227645844179E+004	4.031621049054793E-005	0.000000000000000E+000	4.031621049054793E-005	0.0000000E+000	1.000000000000000E+000	-3.4406136E-007
2	0	0	0	0	0	2	6.263165861919697E+002	1.9995773E-001	2.0028262E-001	-1.676059887045995E-003	-1.4530597E-004	5.2057574E-005	41	0.0000000E+000	-4.036276752433169E-005	3	1.143620235377176E-007	-7.994083606610904E-009	1.845039442322728E+002	2.660957803664561E+004	4.036276752433169E-005	0.000000000000000E+000	4.036276752433169E-005	0.0000000E+000	1.000000000000000E+000	-3.3568566E-007
2	0	0	0	0	0	2	6.264165861894435E+002	1.9995773E-001	1.9975159E-001	-1.645792471943422E-003	-1.4547055E-004	5.1892996E-005	41	0.0000000E+000	-4.040848378079113E-005	3	1.143620235377176E-007	-8.003215501331951E-009	1.845039442322728E+002	2.947905779037498E+004	4.040848378079113E-005	0.000000000000000E+000	4.040848378079113E-005	0.0000000E+000	1.000000000000000E+000	-3.2874965E-007
2	0	0	0	0	0	2	6.265165861869173E+002	1.9995773E-001	1.9929314E-001	-1.599505804013463E-003	-1.4563050E-004	5.1733045E-005	41	0.0000000E+000	-4.045291461807208E-005	3	1.143620235377176E-007	-8.012070262255287E-009	1.845039442322728E+002	3.250217979368921E+004	4.045291461807208E-005	0.000000000000000E+000	4.045291461807208E-005	0.0000000E+000	1.000000000000000E+000	-3.1877053E-007
2	0	0	0	0	0	2	6.266165861843911E+002	1.9995773E-001	2.0011452E-001	-1.578167633619159E-003	-1.4578832E-004	5.1575225E-005	41	0.0000000E+000	-4.049675327324720E-005	3	1.143620235377176E-007	-8.020843013623136E-009	1.845039442322728E+002	2.753673978863004E+004	4.049675327324720E-005	0.000000000000000E+000	4.049675327324720E-005	0.0000000E+000	1.000000000000000E+000	-3.1581425E-007
2	0	0	0	0	0	2	6.267165861818648E+002	1.9995773E-001	2.0099702E-001	-1.570268358802428E-003	-1.4594533E-004	5.1418199E-005	41	0.0000000E+000	-4.054037162859456E-005	3	1.143620235377176E-007	-8.029610173273514E-009	1.845039442322728E+002	2.365951968572326E+004	4.054037162859456E-005	0.000000000000000E+000	4.054037162859456E-005	0.0000000E+000	1.000000000000000E+000	-3.1561927E-007
2	0	0	0	0	0	2	6.268165861793386E+002	1.9995773E-001	1.9974394E-001	-1.512533113593235E-003	-1.4609660E-004	5.1266947E-005	41	0.0000000E+000	-4.058238624161780E-005	3	1.143620235377176E-007	-8.038002337676275E-009	1.845039442322728E+002	2.965022209205900E+004	4.058238624161780E-005	0.000000000000000E+000	4.058238624161780E-005	0.0000000E+000	1.000000000000000E+000	-3.0211933E-007
2	0	0	0	0	0	2	6.269165861768124E+002	1.9995773E-001	2.0068376E-001	-1.469001734163611E-003	-1.4624349E-004	5.1120045E-005	41	0.0000000E+000	-4.062319223723735E-005	3	1.143620235377176E-007	-8.046191438212376E-009	1.845039442322728E+002	2.496319882071267E+004	4.062319223723735E-005	0.000000000000000E+000	4.062319223723735E-005	0.0000000E+000	1.000000000000000E+000	-2.9480478E-007
2	0	0	0	0	0	2	6.270165861742862E+002	1.9995773E-001	2.0006485E-001	-1.463481337763369E-003	-1.4638984E-004	5.0973700E-005	41	0.0000000E+000	-4.066384361875759E-005	3	1.143620235377176E-007	-8.054324350873712E-009	1.845039442322728E+002	2.790862522249503E+004	4.066384361875759E-005	0.000000000000000E+000	4.066384361875759E-005	0.0000000E+000	1.000000000000000E+000	-2.9279119E-007
2	0	0	0	0	0	2	6.271165861717600E+002	1.9995773E-001	2.0051567E-001	-1.430657996213995E-003	-1.4653291E-004	5.0830633E-005	41	0.0000000E+000	-4.070358449502640E-005	3	1.143620235377176E-007	-8.062293019407054E-009	1.845039442322728E+002	2.574382066319220E+004	4.070358449502640E-005	0.000000000000000E+000	4.070358449502640E-005	0.0000000E+000	1.000000000000000E+000	-2.8686935E-007
2	0	0	0	0	0	2	6.272165861692338E+002	1.9995773E-001	2.0059972E-001	-1.406855342094789E-003	-1.4667360E-004	5.0689949E-005	41	0.0000000E+000	-4.074266346126224E-005	3	1.143620235377176E-007	-8.070132248900901E-009	1.845039442322728E+002	2.539683586251786E+004	4.074266346126224E-005	0.000000000000000E+000	4.074266346126224E-005	0.0000000E+000	1.000000000000000E+000	-2.8221478E-007
2	0	0	0	0	0	2	6.273165861667076E+002	1.9995773E-001	2.0016037E-001	-1.365363906370477E-003	-1.4681013E-004	5.0553412E-005	41	0.0000000E+000	-4.078059040087585E-005	3	1.143620235377176E-007	-8.077723719139504E-009	1.845039442322728E+002	2.749207476831695E+004	4.078059040087585E-005	0.000000000000000E+000	4.078059040087585E-005	0.0000000E+000	1.000000000000000E+000	-2.7329173E-007
2	0	0	0	0	0	2	6.274165861641814E+002	1.9995773E-001	1.9989675E-001	-1.357794387266040E-003	-1.4694591E-004	5.0417631E-005	41	0.0000000E+000	-4.081830714615837E-005	3	1.143620235377176E-007	-8.085263174048961E-009	1.845039442322728E+002	2.893213927745819E+004	4.081830714615837E-005	0.000000000000000E+000	4.081830714615837E-005	0.0000000E+000	1.000000000000000E+000	-2.7141868E-007
2	0	0	0	0	0	2	6.275165861616551E+002	1.9995773E-001	2.0071432E-001	-1.343481467571110E-003	-1.4708025E-004	5.0283285E-005	41	0.0000000E+000	-4.085562573487145E-005	3	1.143620235377176E-007	-8.092753549203791E-009	1.845039442322728E+002	2.497561837289750E+004	4.085562573487145E-005	0.000000000000000E+000	4.085562573487145E-005	0.0000000E+000	1.000000000000000E+000	-2.6965597E-007
2	0	0	0	0	0	2	6.276165861591289E+002	1.9995773E-001	2.0066084E-001	-1.329442491056398E-003	-1.4721320E-004	5.0150338E-005	41	0.0000000E+000	-4.089255526196210E-005	3	1.143620235377176E-007	-8.100163859118670E-009	1.845039442322728E+002	2.522492054327782E+004	4.089255526196210E-005	0.000000000000000E+000	4.089255526196210E-005	0.0000000E+000	1.000000000000000E+000	-2.6676705E-007
2	0	0	0	0	0	2	6.277165861566027E+002	1.9995773E-001	2.0006487E-001	-1.287851807777770E-003	-1.4734198E-004	5.0021554E-005	41	0.0000000E+000	-4.092832872023184E-005	3	1.143620235377176E-007	-8.107320871315826E-009	1.845039442322728E+002	2.808836427207566E+004	4.092832872023184E-005	0.000000000000000E+000	4.092832872023184E-005	0.0000000E+000	1.000000000000000E+000	-2.5765391E-007
2	0	0	0	0	0	2	6.278165861540765E+002	1.9995773E-001	2.0059589E-001	-1.268797119148079E-003	-1.4746886E-004	4.9894676E-005	41	0.0000000E+000	-4.096357265047521E-005	3	1.143620235377176E-007	-8.114390658712030E-009	1.845039442322728E+002	2.555003181492370E+004	4.096357265047521E-005	0.000000000000000E+000	4.096357265047521E-005	0.0000000E+000	1.000000000000000E+000	-2.5451547E-007
2	0	0	0	0	0	2	6.279165861515503E+002	1.9995773E-001	1.9995406E-001	-1.237721943994984E-003	-1.4759264E-004	4.9770901E-005	41	0.0000000E+000	-4.099795458185123E-005	3	1.143620235377176E-007	-8.121265465574148E-009	1.845039442322728E+002	2.873705537508802E+004	4.099795458185123E-005	0.000000000000000E+000	4.099795458185123E-005	0.0000000E+000	1.000000000000000E+000	-2.4748752E-007
2	0	0	0	0	0	2	6.280165861490241E+002	1.9995773E-001	2.0015655E-001	-1.265573861077427E-003	-1.4771920E-004	4.9644343E-005	41	0.0000000E+000	-4.103310958372376E-005	3	1.143620235377176E-007	-8.128301969625197E-009	1.845039442322728E+002	2.768030367887428E+004	4.103310958372376E-005	0.000000000000000E+000	4.103310958372376E-005	0.0000000E+000	1.000000000000000E+000	-2.5331289E-007
2	0	0	0	0	0	2	6.281165861464979E+002	1.9995773E-001	1.9999608E-001	-1.221592014713682E-003	-1.4784136E-004	4.9522187E-005	41	0.0000000E+000	-4.106704182049724E-005	3	1.143620235377176E-007	-8.135088284100401E-009	1.845039442322728E+002	2.855358781260691E+004	4.106704182049724E-005	0.000000000000000E+000	4.106704182049724E-005	0.0000000E+000	1.000000000000000E+000	-2.4431361E-007
2	0	0	0	0	0	2	6.282165861439717E+002	1.9995773E-001	2.0017566E-001	-1.196923764888197E-003	-1.4796105E-004	4.9402493E-005	41	0.0000000E+000	-4.110028991514506E-005	3	1.143620235377176E-007	-8.141743743319396E-009	1.845039442322728E+002	2.762722503168233E+004	4.110028991514506E-005	0.000000000000000E+000	4.110028991514506E-005	0.0000000E+000	1.000000000000000E+000	-2.3959501E-007
2	0	0	0	0	0	2	6.283165861414454E+002	1.9995773E-001	2.0031318E-001	-1.179451615316796E-003	-1.4807899E-004	4.9284547E-005	41	0.0000000E+000	-4.113305294595192E-005	3	1.143620235377176E-007	-8.148306610229201E-009	1.845039442322728E+002	2.696311283949860E+004	4.113305294595192E-005	0.000000000000000E+000	4.113305294595192E-005	0.0000000E+000	1.000000000000000E+000	-2.3625971E-007
2	0	0	0	0	0	2	6.284165861389192E+002	1.9995773E-001	2.0034756E-001	-1.130760122556244E-003	-1.4819206E-004	4.9171471E-005	41	0.0000000E+000	-4.116446285075248E-005	3	1.143620235377176E-007	-8.154599507942450E-009	1.845039442322728E+002	2.681720570085815E+004	4.116446285075248E-005	0.000000000000000E+000	4.116446285075248E-005	0.0000000E+000	1.000000000000000E+000	-2.2654503E-007
2	0	0	0	0	0	2	6.285165861363930E+002	1.9995773E-001	2.0029026E-001	-1.143934770021587E-003	-1.4830647E-004	4.9057078E-005	41	0.0000000E+000	-4.119623857453308E-005	3	1.143620235377176E-007	-8.160963876005923E-009	1.845039442322728E+002	2.711625370916188E+004	4.119623857453308E-005	0.000000000000000E+000	4.119623857453308E-005	0.0000000E+000	1.000000000000000E+000	-2.2911900E-007
2	0	0	0	0	0	2	6.286165861338668E+002	1.9995773E-001	2.0021768E-001	-1.149310243839864E-003	-1.4842140E-004	4.8942147E-005	41	0.0000000E+000	-4.122816385966465E-005	3	1.143620235377176E-007	-8.167355882500943E-009	1.845039442322728E+002	2.749862728703046E+004	4.122816385966465E-005	0.000000000000000E+000	4.122816385966465E-005	0.0000000E+000	1.000000000000000E+000	-2.3011224E-007
2	0	0	0	0	0	2	6.287165861313406E+002	1.9995773E-001	2.0081748E-001	-1.141183438710869E-003	-1.4853552E-004	4.8828028E-005	41	0.0000000E+000	-4.125986379222012E-005	3	1.143620235377176E-007	-8.173721783094562E-009	1.845039442322728E+002	2.479021734970851E+004	4.125986379222012E-005	0.000000000000000E+000	4.125986379222012E-005	0.0000000E+000	1.000000000000000E+000	-2.2916959E-007
2	0	0	0	0	0	2	6.288165861288144E+002	1.9995773E-001	2.0080219E-001	-1.108582174114421E-003	-1.4864637E-004	4.8717171E-005	41	0.0000000E+000	-4.129065726172281E-005	3	1.143620235377176E-007	-8.179905179272820E-009	1.845039442322728E+002	2.487142294154354E+004	4.129065726172281E-005	0.000000000000000E+000	4.129065726172281E-005	0.0000000E+000	1.000000000000000E+000	-2.2260573E-007
2	0	0	0	0	0	2	6.289165861262882E+002	1.9995773E-001	1.9956438E-001	-1.102376959112007E-003	-1.4875660E-004	4.8606933E-005	41	0.0000000E+000	-4.132127893778183E-005	3	1.143620235377176E-007	-8.186016175144630E-009	1.845039442322728E+002	3.131543013365593E+004	4.132127893778183E-005	0.000000000000000E+000	4.132127893778183E-005	0.0000000E+000	1.000000000000000E+000	-2.1999517E-007
2	0	0	0	0	0	2	6.290165861237620E+002	1.9995773E-001	1.9972867E-001	-1.097852790611795E-003	-1.4886640E-004	4.8497146E-005	41	0.0000000E+000	-4.135177530568195E-005	3	1.143620235377176E-007	-8.192107174076109E-009	1.845039442322728E+002	3.030010204864491E+004	4.135177530568195E-005	0.000000000000000E+000	4.135177530568195E-005	0.0000000E+000	1.000000000000000E+000	-2.1927268E-007
2	0	0	0	0	0	2	6.291165861212357E+002	1.9995773E-001	2.0074870E-001	-1.050552281318236E-003	-1.4897145E-004	4.8392092E-005	41	0.0000000E+000	-4.138095694846317E-005	3	1.143620235377176E-007	-8.197965350838519E-009	1.845039442322728E+002	2.514832682176462E+004	4.138095694846317E-005	0.000000000000000E+000	4.138095694846317E-005	0.0000000E+000	1.000000000000000E+000	-2.1089700E-007
2	0	0	0	0	0	2	6.292165861187095E+002	1.9995773E-001	2.0045453E-001	-1.058897436538246E-003	-1.4907734E-004	4.8286201E-005	41	0.0000000E+000	-4.141037101766817E-005	3	1.143620235377176E-007	-8.203861534347584E-009	1.845039442322728E+002	2.646828645688617E+004	4.141037101766817E-005	0.000000000000000E+000	4.141037101766817E-005	0.0000000E+000	1.000000000000000E+000	-2.1226079E-007
2	0	0	0	0	0	2	6.293165861161833E+002	1.9995773E-001	2.0009923E-001	-1.049566726956983E-003	-1.4918229E-004	4.8181246E-005	41	0.0000000E+000	-4.143952537560833E-005	3	1.143620235377176E-007	-8.209695298917092E-009	1.845039442322728E+002	2.825257196153662E+004	4.143952537560833E-005	0.000000000000000E+000	4.143952537560833E-005	0.0000000E+000	1.000000000000000E+000	-2.1001749E-007
2	0	0	0	0	0	2	6.294165861136571E+002	1.9995773E-001	1.9988912E-001	-1.030231039738285E-003	-1.4928532E-004	4.8078222E-005	41	0.0000000E+000	-4.146814313167446E-005	3	1.143620235377176E-007	-8.215415677091962E-009	1.845039442322728E+002	2.943223350627233E+004	4.146814313167446E-005	0.000000000000000E+000	4.146814313167446E-005	0.0000000E+000	1.000000000000000E+000	-2.0593198E-007
2	0	0	0	0	0	2	6.295165861111309E+002	1.9995773E-001	1.9980125E-001	-1.028982739080680E-003	-1.4938822E-004	4.7975325E-005	41	0.0000000E+000	-4.149672551850218E-005	3	1.143620235377176E-007	-8.221126473745059E-009	1.845039442322728E+002	2.996670553963179E+004	4.149672551850218E-005	0.000000000000000E+000	4.149672551850218E-005	0.0000000E+000	1.000000000000000E+000	-2.0559204E-007
2	0	0	0	0	0	2	6.295807861095091E+002	1.9995773E-001	2.0026733E-001	-1.001744437708906E-003	-1.4945253E-004	4.7911013E-005	41	0.0000000E+000	-4.151459001554434E-005	3	1.143620235377176E-007	-8.224704148866127E-009	1.845039442322728E+002	2.743783797316349E+004	4.151459001554434E-005	0.000000000000000E+000	4.151459001554434E-005	5.8165386E+001	1.000000000000000E+000	-2.0061668E-007