EC-Lab ASCII FILE
Nb header lines : 60                          

Chronopotentiometry

Run on channel : 1 (SN 5836)
User : 
Electrode connection : standard
Ewe ctrl range : min = -5.00 V, max = 5.00 V
Ewe,I filtering : 50 kHz
Safety Limits :
	Do not start on E overload
Channel : Grounded
Acquisition started on : 06/24/2022 13:13:57
Technique started on : 06/24/2022 13:14:48
Saved on :
	File : 2022-06-24 13_13_40 5_EC_measurements_with_loop_01_03_CP_DUSB0_C01.mpr
	Directory : C:\Users\Spectro Inlets Lab_1\Dropbox (Spectro Inlets)\Development\Data\Kenneth reduced data\2022-06-24 13_13_40 5_EC_measurements_with_loop\
	Host : 192.168.50.150
Device : SP-200 (SN 0763)
Address : USB
EC-Lab for windows v11.27 (software)
Internet server v11.25 (firmware)
Command interpretor v11.27 (firmware)
Electrode material : 
Initial state : 
Electrolyte : 
Comments : 
Cable : standard
Electrode surface area : 0.001 cm²
Characteristic mass : 0.001 g
Equivalent Weight : 0.000 g/eq.
Density : 0.000 g/cm3
Record Ece
Text export
   Mode : Standard
   Time format : Elapsed
Cycle Definition : Charge/Discharge alternance
Is                  0.000               
unit Is             µA                  
vs.                 <None>              
ts (h:m:s)          0:00:10.0000        
EM (V)              pass                
dQM                 0.000               
unit dQM            mA.h                
record              Ewe                 
dEs (mV)            10.00               
dts (s)             0.5000              
E range min (V)     -5.000              
E range max (V)     5.000               
I Range             100 µA              
Bandwidth           8                   
goto Ns'            0                   
nc cycles           0                   

Number of loops : 2
Loop 0 from point number 0 to 21
Loop 1 from point number 22 to 43

mode	ox/red	error	control changes	Ns changes	counter inc.	Ns	time/s	control/mA	Ewe/V	I/mA	dQ/C	(Q-Qo)/C	half cycle	Q charge/discharge/mA.h	I Range	Ece/V	Q discharge/mA.h	Q charge/mA.h	Capacity/mA.h	Efficiency/%	cycle number	P/W	Ewe-Ece/V	
1	1	0	0	0	0	0	5.109679870918626E+001	0.0000000E+000	8.1625509E-001	2.7354923E-005	0.0000000E+000	0.0000000E+000	0	0.000000000000000E+000	41	1.0758879E+000	0.000000000000000E+000	0.000000000000000E+000	0.000000000000000E+000	0.0000000E+000	0.000000000000000E+000	2.2328596E-008	-2.5963283E-001
1	1	0	0	0	0	0	5.128299870448245E+001	0.0000000E+000	8.2628691E-001	3.4225886E-005	6.3176637E-009	6.3176637E-009	0	1.754906575014401E-009	41	1.0744103E+000	0.000000000000000E+000	1.754906575014401E-009	1.754906575014401E-009	0.0000000E+000	0.000000000000000E+000	2.8280402E-008	-2.4812341E-001
1	1	0	0	0	0	0	5.178299869185139E+001	0.0000000E+000	8.2938528E-001	3.0474015E-005	2.1573715E-008	2.1573715E-008	0	5.992698775723208E-009	41	1.0739293E+000	0.000000000000000E+000	5.992698775723208E-009	5.992698775723208E-009	0.0000000E+000	0.000000000000000E+000	2.5274700E-008	-2.4454403E-001
1	1	0	0	0	0	0	5.228299867922033E+001	0.0000000E+000	8.3082169E-001	3.0748852E-005	3.6829618E-008	3.6829618E-008	0	1.023044992709604E-008	41	1.0736201E+000	0.000000000000000E+000	1.023044992709604E-008	1.023044992709604E-008	0.0000000E+000	0.000000000000000E+000	2.5546813E-008	-2.4279839E-001
1	1	0	0	0	0	0	5.278299866658926E+001	0.0000000E+000	8.3186847E-001	3.1176383E-005	5.2032899E-008	5.2032899E-008	0	1.445358289331327E-008	41	1.0732422E+000	0.000000000000000E+000	1.445358289331327E-008	1.445358289331327E-008	0.0000000E+000	0.000000000000000E+000	2.5934650E-008	-2.4137372E-001
1	1	0	0	0	0	0	5.328299865395820E+001	0.0000000E+000	8.3278543E-001	2.9183804E-005	6.7126500E-008	6.7126500E-008	0	1.864625013563960E-008	41	1.0727267E+000	0.000000000000000E+000	1.864625013563960E-008	1.864625013563960E-008	0.0000000E+000	0.000000000000000E+000	2.4303846E-008	-2.3994130E-001
1	1	0	0	0	0	0	5.378299864132714E+001	0.0000000E+000	8.3369845E-001	3.0745043E-005	8.2357161E-008	8.2357161E-008	0	2.287698994556801E-008	41	1.0724518E+000	0.000000000000000E+000	2.287698994556801E-008	2.287698994556801E-008	0.0000000E+000	0.000000000000000E+000	2.5632094E-008	-2.3875338E-001
1	1	0	0	0	0	0	5.428299862869608E+001	0.0000000E+000	8.3459240E-001	3.1695527E-005	9.7783946E-008	9.7783946E-008	0	2.716220757025035E-008	41	1.0720052E+000	0.000000000000000E+000	2.716220757025035E-008	2.716220757025035E-008	0.0000000E+000	0.000000000000000E+000	2.6452845E-008	-2.3741275E-001
1	1	0	0	0	0	0	5.478299861606502E+001	0.0000000E+000	8.3543676E-001	3.0855736E-005	1.1324078E-007	1.1324078E-007	0	3.145577257924338E-008	41	1.0716615E+000	0.000000000000000E+000	3.145577257924338E-008	3.145577257924338E-008	0.0000000E+000	0.000000000000000E+000	2.5778016E-008	-2.3622471E-001
1	1	0	0	0	0	0	5.528299860343395E+001	0.0000000E+000	8.3617026E-001	3.0577085E-005	1.2874830E-007	1.2874830E-007	0	3.576341648810436E-008	41	1.0712836E+000	0.000000000000000E+000	3.576341648810436E-008	3.576341648810436E-008	0.0000000E+000	0.000000000000000E+000	2.5567649E-008	-2.3511332E-001
1	1	0	0	0	0	0	5.578299859080289E+001	0.0000000E+000	8.3701456E-001	3.0954983E-005	1.4420816E-007	1.4420816E-007	0	4.005782297574317E-008	41	1.0711118E+000	0.000000000000000E+000	4.005782297574317E-008	4.005782297574317E-008	0.0000000E+000	0.000000000000000E+000	2.5909772E-008	-2.3409724E-001
1	1	0	0	0	0	0	5.628299857817183E+001	0.0000000E+000	8.3788186E-001	3.0145740E-005	1.5998778E-007	1.5998778E-007	0	4.444105130076221E-008	41	1.0704246E+000	0.000000000000000E+000	4.444105130076221E-008	4.444105130076221E-008	0.0000000E+000	0.000000000000000E+000	2.5258569E-008	-2.3254269E-001
1	1	0	0	0	0	0	5.678299856554077E+001	0.0000000E+000	8.3860385E-001	3.1351974E-005	1.7580496E-007	1.7580496E-007	0	4.883471161055139E-008	41	1.0703216E+000	0.000000000000000E+000	4.883471161055139E-008	4.883471161055139E-008	0.0000000E+000	0.000000000000000E+000	2.6291886E-008	-2.3171771E-001
1	1	0	0	0	0	0	5.728299855290970E+001	0.0000000E+000	8.3932209E-001	3.2061977E-005	1.9193969E-007	1.9193969E-007	0	5.331657899892485E-008	41	1.0700122E+000	0.000000000000000E+000	5.331657899892485E-008	5.331657899892485E-008	0.0000000E+000	0.000000000000000E+000	2.6910325E-008	-2.3069012E-001
1	1	0	0	0	0	0	5.778299854027864E+001	0.0000000E+000	8.4005177E-001	3.2321546E-005	2.0796666E-007	2.0796666E-007	0	5.776851824329141E-008	41	1.0696343E+000	0.000000000000000E+000	5.776851824329141E-008	5.776851824329141E-008	0.0000000E+000	0.000000000000000E+000	2.7151772E-008	-2.2958255E-001
1	1	0	0	0	0	0	5.828299852764758E+001	0.0000000E+000	8.4071654E-001	3.2081058E-005	2.2402742E-007	2.2402742E-007	0	6.222983720726916E-008	41	1.0692563E+000	0.000000000000000E+000	6.222983720726916E-008	6.222983720726916E-008	0.0000000E+000	0.000000000000000E+000	2.6971076E-008	-2.2853976E-001
1	1	0	0	0	0	0	5.878299851501652E+001	0.0000000E+000	8.4136981E-001	3.1542833E-005	2.3991950E-007	2.3991950E-007	0	6.664430763470995E-008	41	1.0686035E+000	0.000000000000000E+000	6.664430763470995E-008	6.664430763470995E-008	0.0000000E+000	0.000000000000000E+000	2.6539187E-008	-2.2723371E-001
1	1	0	0	0	0	0	5.928299850238545E+001	0.0000000E+000	8.4200782E-001	3.0859559E-005	2.5584814E-007	2.5584814E-007	0	7.106892778685708E-008	41	1.0686035E+000	0.000000000000000E+000	7.106892778685708E-008	7.106892778685708E-008	0.0000000E+000	0.000000000000000E+000	2.5983990E-008	-2.2659570E-001
1	1	0	0	0	0	0	5.978299848975439E+001	0.0000000E+000	8.4257323E-001	3.3485790E-005	2.7181247E-007	2.7181247E-007	0	7.550345973494485E-008	41	1.0680881E+000	0.000000000000000E+000	7.550345973494485E-008	7.550345973494485E-008	0.0000000E+000	0.000000000000000E+000	2.8214231E-008	-2.2551483E-001
1	1	0	0	0	0	0	6.028299847712333E+001	0.0000000E+000	8.4317303E-001	3.3111708E-005	2.8798019E-007	2.8798019E-007	0	7.999449286489835E-008	41	1.0676414E+000	0.000000000000000E+000	7.999449286489835E-008	7.999449286489835E-008	0.0000000E+000	0.000000000000000E+000	2.7918899E-008	-2.2446835E-001
1	1	0	0	0	0	0	6.078299846449227E+001	0.0000000E+000	8.4374231E-001	3.1256543E-005	3.0389714E-007	3.0389714E-007	0	8.441587200276344E-008	41	1.0678132E+000	0.000000000000000E+000	8.441587200276344E-008	8.441587200276344E-008	0.0000000E+000	0.000000000000000E+000	2.6372467E-008	-2.2407085E-001
1	1	0	0	0	0	0	6.109659845657006E+001	0.0000000E+000	8.4411287E-001	3.2313914E-005	3.1405838E-007	3.1405838E-007	0	8.723843644090974E-008	41	1.0674696E+000	0.000000000000000E+000	8.723843644090974E-008	8.723843644090974E-008	0.0000000E+000	0.000000000000000E+000	2.7276590E-008	-2.2335672E-001
1	1	0	0	0	0	0	1.022483974169882E+002	0.0000000E+000	8.1058294E-001	3.2699008E-005	0.0000000E+000	0.0000000E+000	0	0.000000000000000E+000	41	1.0775028E+000	0.000000000000000E+000	0.000000000000000E+000	0.000000000000000E+000	0.0000000E+000	0.000000000000000E+000	2.6505258E-008	-2.6691991E-001
1	1	0	0	0	0	0	1.023655974140274E+002	0.0000000E+000	8.2058305E-001	3.0110879E-005	3.9459569E-009	3.9459569E-009	0	1.096099084053195E-009	41	1.0765750E+000	0.000000000000000E+000	1.096099084053195E-009	1.096099084053195E-009	0.0000000E+000	0.000000000000000E+000	2.4708477E-008	-2.5599200E-001
1	1	0	0	0	0	0	1.028655974013964E+002	0.0000000E+000	8.2553047E-001	3.0351863E-005	1.8924490E-008	1.8924490E-008	0	5.256802980208401E-009	41	1.0759566E+000	0.000000000000000E+000	5.256802980208401E-009	5.256802980208401E-009	0.0000000E+000	0.000000000000000E+000	2.5056387E-008	-2.5042611E-001
1	1	0	0	0	0	0	1.033655973887653E+002	0.0000000E+000	8.2745594E-001	3.1241278E-005	3.4413446E-008	3.4413446E-008	0	9.559290271984840E-009	41	1.0749258E+000	0.000000000000000E+000	9.559290271984840E-009	9.559290271984840E-009	0.0000000E+000	0.000000000000000E+000	2.5850781E-008	-2.4746984E-001
1	1	0	0	0	0	0	1.038655973761342E+002	0.0000000E+000	8.2889241E-001	3.2168857E-005	5.0176745E-008	5.0176745E-008	0	1.393798504785890E-008	41	1.0751662E+000	0.000000000000000E+000	1.393798504785890E-008	1.393798504785890E-008	0.0000000E+000	0.000000000000000E+000	2.6664521E-008	-2.4627382E-001
1	1	0	0	0	0	0	1.043655973635032E+002	0.0000000E+000	8.3002323E-001	3.3993474E-005	6.6123626E-008	6.6123626E-008	0	1.836767446083185E-008	41	1.0744791E+000	0.000000000000000E+000	1.836767446083185E-008	1.836767446083185E-008	0.0000000E+000	0.000000000000000E+000	2.8215373E-008	-2.4445587E-001
1	1	0	0	0	0	0	1.048655973508721E+002	0.0000000E+000	8.3119994E-001	3.0596166E-005	8.2034255E-008	8.2034255E-008	0	2.278729345562169E-008	41	1.0741354E+000	0.000000000000000E+000	2.278729345562169E-008	2.278729345562169E-008	0.0000000E+000	0.000000000000000E+000	2.5431531E-008	-2.4293548E-001
1	1	0	0	0	0	0	1.053655973382411E+002	0.0000000E+000	8.3231550E-001	3.2695629E-005	9.8201156E-008	9.8201156E-008	0	2.727809880959992E-008	41	1.0738606E+000	0.000000000000000E+000	2.727809880959992E-008	2.727809880959992E-008	0.0000000E+000	0.000000000000000E+000	2.7213078E-008	-2.4154514E-001
1	1	0	0	0	0	0	1.058655973256100E+002	0.0000000E+000	8.3326674E-001	3.2676540E-005	1.1462043E-007	1.1462043E-007	0	3.183900712701870E-008	41	1.0735857E+000	0.000000000000000E+000	3.183900712701870E-008	3.183900712701870E-008	0.0000000E+000	0.000000000000000E+000	2.7228275E-008	-2.4031901E-001
1	1	0	0	0	0	0	1.063655973129789E+002	0.0000000E+000	8.3416837E-001	3.3119341E-005	1.3087353E-007	1.3087353E-007	0	3.635375780393385E-008	41	1.0728985E+000	0.000000000000000E+000	3.635375780393385E-008	3.635375780393385E-008	0.0000000E+000	0.000000000000000E+000	2.7627106E-008	-2.3873013E-001
1	1	0	0	0	0	0	1.068655973003479E+002	0.0000000E+000	8.3512348E-001	3.2294822E-005	1.4703254E-007	1.4703254E-007	0	4.084237231098895E-008	41	1.0726581E+000	0.000000000000000E+000	4.084237231098895E-008	4.084237231098895E-008	0.0000000E+000	0.000000000000000E+000	2.6970165E-008	-2.3753458E-001
1	1	0	0	0	0	0	1.073655972877168E+002	0.0000000E+000	8.3596772E-001	3.2252839E-005	1.6351272E-007	1.6351272E-007	0	4.542019909159636E-008	41	1.0722800E+000	0.000000000000000E+000	4.542019909159636E-008	4.542019909159636E-008	0.0000000E+000	0.000000000000000E+000	2.6962333E-008	-2.3631233E-001
1	1	0	0	0	0	0	1.078655972750857E+002	0.0000000E+000	8.3688849E-001	3.1508484E-005	1.8007127E-007	1.8007127E-007	0	5.001979750866465E-008	41	1.0720052E+000	0.000000000000000E+000	5.001979750866465E-008	5.001979750866465E-008	0.0000000E+000	0.000000000000000E+000	2.6369086E-008	-2.3511666E-001
1	1	0	0	0	0	0	1.083655972624547E+002	0.0000000E+000	8.3766025E-001	3.1771870E-005	1.9639575E-007	1.9639575E-007	0	5.455437431171756E-008	41	1.0714210E+000	0.000000000000000E+000	5.455437431171756E-008	5.455437431171756E-008	0.0000000E+000	0.000000000000000E+000	2.6614032E-008	-2.3376077E-001
1	1	0	0	0	0	0	1.088655972498236E+002	0.0000000E+000	8.3845866E-001	3.2745258E-005	2.1270175E-007	2.1270175E-007	0	5.908381761825391E-008	41	1.0712492E+000	0.000000000000000E+000	5.908381761825391E-008	5.908381761825391E-008	0.0000000E+000	0.000000000000000E+000	2.7455545E-008	-2.3279059E-001
1	1	0	0	0	0	0	1.093655972371926E+002	0.0000000E+000	8.3921129E-001	3.3917131E-005	2.2904415E-007	2.2904415E-007	0	6.362337588729537E-008	41	1.0710087E+000	0.000000000000000E+000	6.362337588729537E-008	6.362337588729537E-008	0.0000000E+000	0.000000000000000E+000	2.8463639E-008	-2.3179740E-001
1	1	0	0	0	0	0	1.098655972245615E+002	0.0000000E+000	8.3985692E-001	3.1413048E-005	2.4525502E-007	2.4525502E-007	0	6.812639164127177E-008	41	1.0706651E+000	0.000000000000000E+000	6.812639164127177E-008	6.812639164127177E-008	0.0000000E+000	0.000000000000000E+000	2.6382466E-008	-2.3080820E-001
1	1	0	0	0	0	0	1.103655972119304E+002	0.0000000E+000	8.4057897E-001	3.4066004E-005	2.6172233E-007	2.6172233E-007	0	7.270065145955111E-008	41	1.0699435E+000	0.000000000000000E+000	7.270065145955111E-008	7.270065145955111E-008	0.0000000E+000	0.000000000000000E+000	2.8635167E-008	-2.2936457E-001
1	1	0	0	0	0	0	1.108655971992994E+002	0.0000000E+000	8.4132016E-001	3.3844608E-005	2.7826891E-007	2.7826891E-007	0	7.729692212392870E-008	41	1.0701153E+000	0.000000000000000E+000	7.729692212392870E-008	7.729692212392870E-008	0.0000000E+000	0.000000000000000E+000	2.8474151E-008	-2.2879517E-001
1	1	0	0	0	0	0	1.113655971866683E+002	0.0000000E+000	8.4190851E-001	3.3126973E-005	2.9479284E-007	2.9479284E-007	0	8.188689737501893E-008	41	1.0695999E+000	0.000000000000000E+000	8.188689737501893E-008	8.188689737501893E-008	0.0000000E+000	0.000000000000000E+000	2.7889881E-008	-2.2769135E-001
1	1	0	0	0	0	0	1.118655971740372E+002	0.0000000E+000	8.4251595E-001	3.0897729E-005	3.1105472E-007	3.1105472E-007	0	8.640409084889850E-008	41	1.0694968E+000	0.000000000000000E+000	8.640409084889850E-008	8.640409084889850E-008	0.0000000E+000	0.000000000000000E+000	2.6031829E-008	-2.2698081E-001
1	1	0	0	0	0	0	1.122481971643720E+002	0.0000000E+000	8.4291708E-001	3.2436059E-005	3.2346591E-007	3.2346591E-007	0	8.985164472556385E-008	41	1.0688440E+000	0.000000000000000E+000	8.985164472556385E-008	8.985164472556385E-008	0.0000000E+000	0.000000000000000E+000	2.7340908E-008	-2.2592688E-001