EC-Lab ASCII FILE
Nb header lines : 74                          

Cyclic Voltammetry Advanced

Run on channel : 1 (SN 5836)
User : 
Electrode connection : standard
Ewe ctrl range : min = -5.00 V, max = 5.00 V
Ewe,I filtering : 50 kHz
Safety Limits :
	Do not start on E overload
Channel : Grounded
Acquisition started on : 06/24/2022 13:13:57
Technique started on : 06/24/2022 13:14:08
Saved on :
	File : 2022-06-24 13_13_40 5_EC_measurements_with_loop_01_02_CVA_DUSB0_C01.mpr
	Directory : C:\Users\Spectro Inlets Lab_1\Dropbox (Spectro Inlets)\Development\Data\Kenneth reduced data\2022-06-24 13_13_40 5_EC_measurements_with_loop\
	Host : 192.168.50.150
Device : SP-200 (SN 0763)
Address : USB
EC-Lab for windows v11.27 (software)
Internet server v11.25 (firmware)
Command interpretor v11.27 (firmware)
Electrode material : 
Initial state : 
Electrolyte : 
Comments : 
Cable : standard
Electrode surface area : 0.001 cm²
Characteristic mass : 0.001 g
Equivalent Weight : 0.000 g/eq.
Density : 0.000 g/cm3
Record Ece
Text export
   Mode : Standard
   Time format : Elapsed
Cycle Definition : Charge/Discharge alternance
Ei (V)              0.000               
vs.                 Eoc                 
ti (h:m:s)          0:00:10.0000        
dti (s)             1.0000              
dE/dt               20.000              
dE/dt unit          mV/s                
E1 (V)              1.000               
vs.                 Ref                 
t1 (h:m:s)          0:00:0.0000         
dt1 (s)             0.1000              
Step percent        80                  
N                   50                  
E range min (V)     -5.000              
E range max (V)     5.000               
I Range             1 mA                
I Range min         Unset               
I Range max         Unset               
I Range init        Unset               
Bandwidth           1                   
E2 (V)              0.700               
vs.                 Ref                 
t2 (h:m:s)          0:00:0.0000         
dt2 (s)             0.1000              
nc cycles           0                   
nr                  1                   
Reverse Scan        1                   
Ef (V)              0.000               
vs.                 Eoc                 
tf (h:m:s)          0:00:0.0000         
dtf (s)             0.1000              

Number of loops : 2
Loop 0 from point number 0 to 76
Loop 1 from point number 77 to 153

mode	ox/red	error	control changes	Ns changes	counter inc.	time/s	control/V	Ewe/V	<I>/mA	cycle number	(Q-Qo)/C	I Range	<Ece>/V	P/W	Ewe-Ece/V	
2	1	0	1	0	0	1.100059972210147E+001	8.5430270E-001	8.5430568E-001	3.681490779854357E-004	1.000000000000000E+000	0.0000000E+000	40	1.0487431E+000	3.1451185E-007	-1.9443744E-001
2	1	0	1	0	0	1.200059969683934E+001	8.5430270E-001	8.5438204E-001	7.340607166452873E-005	1.000000000000000E+000	7.3406078E-008	40	1.0522499E+000	6.2716829E-008	-1.9786787E-001
2	0	0	1	0	0	1.300059967157722E+001	8.5430270E-001	8.5440499E-001	7.655017803386509E-005	1.000000000000000E+000	1.4995626E-007	40	1.0520029E+000	6.5404855E-008	-1.9759792E-001
2	1	0	1	0	0	1.400059964631510E+001	8.5430270E-001	8.5438591E-001	7.794271838811669E-005	1.000000000000000E+000	2.2789899E-007	40	1.0517637E+000	6.6593159E-008	-1.9737774E-001
2	1	0	1	0	0	1.500059962105297E+001	8.5430270E-001	8.5437059E-001	8.201897551911503E-005	1.000000000000000E+000	3.0991797E-007	40	1.0515153E+000	7.0074599E-008	-1.9714475E-001
2	0	0	1	0	0	1.600059959579085E+001	8.5430270E-001	8.5436296E-001	8.306472787512984E-005	1.000000000000000E+000	3.9298271E-007	40	1.0512785E+000	7.0967424E-008	-1.9691551E-001
2	0	0	1	0	0	1.700059957052872E+001	8.5430270E-001	8.5436296E-001	8.355679363455828E-005	1.000000000000000E+000	4.7653950E-007	40	1.0510372E+000	7.1387831E-008	-1.9667423E-001
2	1	0	1	0	0	1.800059954526660E+001	8.5430270E-001	8.5435915E-001	8.285033994221605E-005	1.000000000000000E+000	5.5938983E-007	40	1.0507945E+000	7.0783948E-008	-1.9643533E-001
2	0	0	1	0	0	1.900059952000447E+001	8.5430270E-001	8.5435534E-001	8.169208869510374E-005	1.000000000000000E+000	6.4108195E-007	40	1.0505265E+000	6.9794069E-008	-1.9617116E-001
2	0	0	1	0	0	2.000059949474235E+001	8.5430270E-001	8.5432476E-001	7.986141513037937E-005	1.000000000000000E+000	7.2094338E-007	40	1.0503041E+000	6.8227585E-008	-1.9597930E-001
2	1	0	1	0	0	2.101039946923265E+001	8.5430270E-001	8.5439730E-001	7.850619154445456E-005	1.000000000000000E+000	8.0021891E-007	40	1.0500481E+000	6.7075476E-008	-1.9565082E-001
2	1	0	1	0	0	2.126529946279334E+001	8.5939825E-001	8.5940427E-001	1.204975723903857E-005	1.000000000000000E+000	8.8246099E-007	40	1.0500242E+000	1.0355612E-008	-1.9061989E-001
2	1	0	0	0	0	2.176509945016733E+001	8.6939400E-001	8.6941427E-001	1.163275407298698E-004	1.000000000000000E+000	1.0623204E-006	40	1.0473232E+000	1.0113683E-007	-1.7790896E-001
2	0	0	1	0	0	2.226489943754132E+001	8.7938976E-001	8.7944758E-001	2.494649424993251E-004	1.000000000000000E+000	1.2699586E-006	40	1.0440294E+000	2.1939134E-007	-1.6458178E-001
2	0	0	0	0	0	2.276459942491783E+001	8.8938397E-001	8.8945544E-001	3.546610817124872E-004	1.000000000000000E+000	1.5024524E-006	40	1.0409281E+000	3.1545522E-007	-1.5147269E-001
2	0	0	0	0	0	2.326429941229435E+001	8.9937818E-001	8.9945590E-001	4.221235895188666E-004	1.000000000000000E+000	1.7605792E-006	40	1.0380386E+000	3.7968155E-007	-1.3858271E-001
2	0	0	1	0	0	2.376409939966834E+001	9.0937394E-001	9.0945631E-001	4.853171092504174E-004	1.000000000000000E+000	2.0468417E-006	40	1.0350859E+000	4.4137471E-007	-1.2562960E-001
2	0	0	0	0	0	2.426389938704233E+001	9.1936958E-001	9.1943610E-001	5.365229614298743E-004	1.000000000000000E+000	2.3639352E-006	40	1.0319953E+000	4.9329856E-007	-1.1255920E-001
2	1	0	0	0	0	2.476349937442137E+001	9.2936230E-001	9.2941958E-001	5.969409675359080E-004	1.000000000000000E+000	2.7153203E-006	40	1.0285243E+000	5.5480859E-007	-9.9104702E-002
2	1	0	1	0	0	2.526329936179536E+001	9.3935806E-001	9.3941069E-001	6.585980417746270E-004	1.000000000000000E+000	3.1066427E-006	40	1.0247383E+000	6.1869406E-007	-8.5327625E-002
2	1	0	0	0	0	2.576309934916935E+001	9.4935369E-001	9.4940865E-001	7.450531991705610E-004	1.000000000000000E+000	3.5437290E-006	40	1.0203131E+000	7.0735996E-007	-7.0904493E-002
2	1	0	1	0	0	2.626279933654587E+001	9.5934790E-001	9.5940202E-001	8.535451015666672E-004	1.000000000000000E+000	4.0340997E-006	40	1.0152051E+000	8.1889289E-007	-5.5803120E-002
2	1	0	1	0	0	2.676249932392238E+001	9.6934223E-001	9.6939796E-001	9.994803201267555E-004	1.000000000000000E+000	4.5863721E-006	40	1.0092492E+000	9.6889414E-007	-3.9851248E-002
2	1	0	0	0	0	2.726229931129637E+001	9.7933793E-001	9.7939223E-001	1.167769094168823E-003	1.000000000000000E+000	5.2115711E-006	40	1.0025482E+000	1.1437040E-006	-2.3155987E-002
2	1	0	1	0	0	2.776209929867036E+001	9.8933357E-001	9.8939085E-001	1.359922812301846E-003	1.000000000000000E+000	5.9217991E-006	40	9.9499482E-001	1.3454952E-006	-5.6039691E-003
2	1	0	0	0	0	2.815189928882319E+001	9.9713081E-001	9.9719399E-001	1.514602753350663E-003	1.000000000000000E+000	6.5327604E-006	40	9.8865068E-001	1.5103527E-006	8.5433125E-003
2	1	0	0	0	0	2.829059928531933E+001	1.0000283E+000	1.0000346E+000	2.556163817644119E-003	1.000000000000000E+000	6.7644328E-006	40	9.7452450E-001	2.5562522E-006	2.5510073E-002
2	1	0	0	0	0	2.830059928506671E+001	9.9982834E-001	9.9988174E-001	1.221688468528252E-003	1.000000000000000E+000	6.7756614E-006	40	9.9053860E-001	1.2215440E-006	9.3431473E-003
2	1	0	0	0	0	2.855549927862739E+001	9.9472976E-001	9.9477440E-001	5.996310081198258E-004	1.000000000000000E+000	6.8920058E-006	40	9.9798489E-001	5.9649756E-007	-3.2104850E-003
2	1	0	0	0	0	2.905529926600138E+001	9.8473406E-001	9.8477834E-001	2.325370230714906E-004	1.000000000000000E+000	7.0183605E-006	40	1.0033735E+000	2.2899742E-007	-1.8595159E-002
2	1	0	0	0	0	2.955499925337790E+001	9.7473985E-001	9.7477806E-001	9.861454508818066E-005	1.000000000000000E+000	7.0164829E-006	40	1.0066193E+000	9.6127295E-008	-3.1841278E-002
2	0	0	1	0	0	3.005469924075442E+001	9.6474564E-001	9.6480227E-001	2.348884916888457E-005	1.000000000000000E+000	6.9566809E-006	40	1.0093480E+000	2.2662094E-008	-4.4545770E-002
2	0	0	1	0	0	3.055449922812841E+001	9.5474988E-001	9.5480496E-001	-3.258860080763775E-005	1.000000000000000E+000	6.8634299E-006	40	1.0119247E+000	-3.1115757E-008	-5.7119787E-002
2	0	0	1	0	0	3.105419921550492E+001	9.4475609E-001	9.4480395E-001	-7.996147378642798E-005	1.000000000000000E+000	6.7490969E-006	40	1.0143849E+000	-7.5547916E-008	-6.9580913E-002
2	1	0	0	0	0	3.155389920288144E+001	9.3476164E-001	9.3480724E-001	-1.179245785095258E-004	1.000000000000000E+000	6.6206453E-006	40	1.0167975E+000	-1.1023675E-007	-8.1990302E-002
2	1	0	0	0	0	3.205369919025543E+001	9.2476565E-001	9.2479610E-001	-1.475098130519928E-004	1.000000000000000E+000	6.4825144E-006	40	1.0191149E+000	-1.3641650E-007	-9.4318748E-002
2	1	0	0	0	0	3.255349917762942E+001	9.1477013E-001	9.1481590E-001	-1.698002457405148E-004	1.000000000000000E+000	6.3368298E-006	40	1.0212312E+000	-1.5533597E-007	-1.0641527E-001
2	1	0	0	0	0	3.305319916500594E+001	9.0477592E-001	9.0480584E-001	-1.908928804830476E-004	1.000000000000000E+000	6.1842429E-006	40	1.0233786E+000	-1.7272099E-007	-1.1857277E-001
2	1	0	1	0	0	3.355289915238245E+001	8.9478171E-001	8.9482844E-001	-2.104518063979825E-004	1.000000000000000E+000	6.0260481E-006	40	1.0254731E+000	-1.8831827E-007	-1.3064468E-001
2	1	0	1	0	0	3.405269913975644E+001	8.8478583E-001	8.8482201E-001	-2.193406218158975E-004	1.000000000000000E+000	5.8617743E-006	40	1.0274310E+000	-1.9407742E-007	-1.4260900E-001
2	1	0	1	0	0	3.455249912713043E+001	8.7479019E-001	8.7482548E-001	-2.145349348854049E-004	1.000000000000000E+000	5.6916824E-006	40	1.0293258E+000	-1.8768063E-007	-1.5450037E-001
2	1	0	0	0	0	3.505209911450947E+001	8.6479771E-001	8.6483741E-001	-2.098729207362419E-004	1.000000000000000E+000	5.5154983E-006	40	1.0312107E+000	-1.8150595E-007	-1.6637325E-001
2	1	0	0	0	0	3.555189910188346E+001	8.5480183E-001	8.5485625E-001	-2.071952626066730E-004	1.000000000000000E+000	5.3308522E-006	40	1.0331316E+000	-1.7712216E-007	-1.7827535E-001
2	1	0	0	0	0	3.605169908925745E+001	8.4480602E-001	8.4486812E-001	-2.070762055560900E-004	1.000000000000000E+000	5.1343391E-006	40	1.0351392E+000	-1.7495209E-007	-1.9027108E-001
2	1	0	0	0	0	3.655139907663397E+001	8.3481193E-001	8.3488256E-001	-2.116413907769692E-004	1.000000000000000E+000	4.9240052E-006	40	1.0372630E+000	-1.7669571E-007	-2.0238048E-001
2	0	0	1	0	0	3.705109906401049E+001	8.2481784E-001	8.2490671E-001	-2.261027922127539E-004	1.000000000000000E+000	4.6960931E-006	40	1.0397063E+000	-1.8651372E-007	-2.1479964E-001
2	0	0	1	0	0	3.755089905138448E+001	8.1482196E-001	8.1490725E-001	-2.489676131854336E-004	1.000000000000000E+000	4.4475514E-006	40	1.0423763E+000	-2.0288552E-007	-2.2746903E-001
2	0	0	1	0	0	3.805069903875847E+001	8.0482614E-001	8.0491161E-001	-2.947011833951208E-004	1.000000000000000E+000	4.1751950E-006	40	1.0455520E+000	-2.3720841E-007	-2.4064040E-001
2	0	0	1	0	0	3.855039902613498E+001	7.9483181E-001	7.9491544E-001	-3.428603281660655E-004	1.000000000000000E+000	3.8748603E-006	40	1.0489625E+000	-2.7254498E-007	-2.5404704E-001
2	0	0	0	0	0	3.905009901351150E+001	7.8483784E-001	7.8491819E-001	-4.038959181070739E-004	1.000000000000000E+000	3.5438447E-006	40	1.0528272E+000	-3.1702524E-007	-2.6790905E-001
2	0	0	0	0	0	3.954989900088549E+001	7.7484202E-001	7.7491677E-001	-4.717299684821293E-004	1.000000000000000E+000	3.1784261E-006	40	1.0571038E+000	-3.6555147E-007	-2.8218699E-001
2	0	0	0	0	0	4.004959898826201E+001	7.6484811E-001	7.6493657E-001	-5.514772896116488E-004	1.000000000000000E+000	2.7773415E-006	40	1.0617954E+000	-4.2184516E-007	-2.9685879E-001
2	0	0	1	0	0	4.054929897563852E+001	7.5485379E-001	7.5496107E-001	-6.161176490881142E-004	1.000000000000000E+000	2.3380012E-006	40	1.0665984E+000	-4.6514484E-007	-3.1163734E-001
2	0	0	1	0	0	4.104909896301251E+001	7.4485797E-001	7.4495655E-001	-6.929742332903808E-004	1.000000000000000E+000	1.8593631E-006	40	1.0718077E+000	-5.1623567E-007	-3.2685119E-001
2	0	0	1	0	0	4.154889895038650E+001	7.3486209E-001	7.3497605E-001	-7.623453511146835E-004	1.000000000000000E+000	1.3427727E-006	40	1.0772858E+000	-5.6030558E-007	-3.4230971E-001
2	0	0	1	0	0	4.204859893776302E+001	7.2486800E-001	7.2497928E-001	-8.443807782361375E-004	1.000000000000000E+000	7.8944629E-007	40	1.0831842E+000	-6.1215854E-007	-3.5820496E-001
2	0	0	0	0	0	4.254829892513953E+001	7.1487391E-001	7.1497762E-001	-9.136684737783988E-004	1.000000000000000E+000	2.0161941E-007	40	1.0891527E+000	-6.5325253E-007	-3.7417507E-001
2	0	0	0	0	0	4.304309891263983E+001	7.0497799E-001	7.0507813E-001	-9.908792356073948E-004	1.000000000000000E+000	-4.1107165E-007	40	1.0953492E+000	-6.9864728E-007	-3.9027107E-001
2	1	0	0	0	0	4.328719890647335E+001	6.9998163E-001	7.0004588E-001	3.674372099339962E-003	1.000000000000000E+000	-7.1894624E-007	40	1.0412869E+000	2.5722291E-006	-3.4124106E-001
2	1	0	0	0	1	4.329719890622073E+001	7.0018148E-001	7.0021778E-001	-1.224614996317541E-003	1.000000000000000E+000	-7.2932420E-007	40	1.1008378E+000	-8.5749718E-007	-4.0062004E-001
2	1	0	0	0	1	4.355209889978141E+001	7.0527810E-001	7.0529604E-001	-8.717614740863344E-004	1.000000000000000E+000	-8.9390693E-007	40	1.0978123E+000	-6.1484991E-007	-3.9251626E-001
2	1	0	1	0	1	4.405189888715540E+001	7.1527392E-001	7.1530616E-001	-5.744412440879289E-004	1.000000000000000E+000	-1.1444394E-006	40	1.0956862E+000	-4.1090135E-007	-3.8038003E-001
2	1	0	0	0	1	4.455159887453192E+001	7.2526824E-001	7.2530729E-001	-4.005089596320745E-004	1.000000000000000E+000	-1.2907125E-006	40	1.0942243E+000	-2.9049207E-007	-3.6891705E-001
2	1	0	0	0	1	4.505129886190844E+001	7.3526227E-001	7.3530668E-001	-2.883470669763129E-004	1.000000000000000E+000	-1.3717911E-006	40	1.0930002E+000	-2.1202352E-007	-3.5769349E-001
2	1	0	1	0	1	4.555109884928243E+001	7.4525803E-001	7.4530137E-001	-1.952717677155386E-004	1.000000000000000E+000	-1.4025209E-006	40	1.0916384E+000	-1.4553632E-007	-3.4633708E-001
2	1	0	0	0	1	4.605079883665894E+001	7.5525188E-001	7.5530243E-001	-1.303518738732757E-004	1.000000000000000E+000	-1.3921327E-006	40	1.0903124E+000	-9.8455089E-008	-3.3500993E-001
2	1	0	0	0	1	4.655049882403546E+001	7.6524633E-001	7.6528358E-001	-7.216867202712368E-005	1.000000000000000E+000	-1.3459979E-006	40	1.0887970E+000	-5.5229499E-008	-3.2351339E-001
2	1	0	1	0	1	4.705029881140945E+001	7.7524209E-001	7.7526093E-001	-3.144517941550690E-005	1.000000000000000E+000	-1.2680490E-006	40	1.0872401E+000	-2.4378219E-008	-3.1197917E-001
2	1	0	0	0	1	4.755009879878344E+001	7.8523779E-001	7.8524047E-001	2.547981999181448E-006	1.000000000000000E+000	-1.1600513E-006	40	1.0856344E+000	2.0007787E-009	-3.0039388E-001
2	1	0	1	0	1	4.804979878615995E+001	7.9523200E-001	7.9523236E-001	2.354632466651647E-005	1.000000000000000E+000	-1.0248918E-006	40	1.0839031E+000	1.8724799E-008	-2.8867072E-001
2	1	0	1	0	1	4.854949877353647E+001	8.0522627E-001	8.0523294E-001	5.376382116813910E-005	1.000000000000000E+000	-8.6523789E-007	40	1.0818812E+000	4.3292399E-008	-2.7664822E-001
2	1	0	0	0	1	4.904929876091046E+001	8.1522197E-001	8.1522918E-001	8.745743048436147E-005	1.000000000000000E+000	-6.8201160E-007	40	1.0796407E+000	7.1297848E-008	-2.6441157E-001
2	1	0	1	0	1	4.954909874828445E+001	8.2521778E-001	8.2523894E-001	1.584618999388762E-004	1.000000000000000E+000	-4.7663312E-007	40	1.0768632E+000	1.3076892E-007	-2.5162423E-001
2	1	0	0	0	1	5.004879873566097E+001	8.3521229E-001	8.3525395E-001	2.472730360333917E-004	1.000000000000000E+000	-2.5223491E-007	40	1.0736482E+000	2.0653579E-007	-2.3839426E-001
2	0	0	0	0	1	5.054849872303748E+001	8.4520614E-001	8.4526700E-001	3.254362722565087E-004	1.000000000000000E+000	-9.4660439E-009	40	1.0704181E+000	2.7508054E-007	-2.2515112E-001
2	0	0	1	0	1	5.089829871420079E+001	8.5220164E-001	8.5227674E-001	3.754822015907774E-004	1.000000000000000E+000	1.6973654E-007	40	1.0681682E+000	3.2001475E-007	-2.1589142E-001
2	0	0	1	0	1	5.099459871176805E+001	8.5430270E-001	8.5446614E-001	3.219232219271362E-003	1.000000000000000E+000	2.2500693E-007	40	1.0330060E+000	2.7507249E-006	-1.7853981E-001
2	1	0	1	0	0	6.214699843003473E+001	8.5370302E-001	8.5375935E-001	8.903737762011588E-004	2.000000000000000E+000	0.0000000E+000	40	1.0557183E+000	7.6016494E-007	-2.0195895E-001
2	0	0	1	0	0	6.314699840477260E+001	8.5370302E-001	8.5371733E-001	1.194181408529060E-004	2.000000000000000E+000	1.1941815E-007	40	1.0646098E+000	1.0194933E-007	-2.1089244E-001
2	1	0	1	0	0	6.414699837951048E+001	8.5370302E-001	8.5378611E-001	1.135875407477854E-004	2.000000000000000E+000	2.3300569E-007	40	1.0640295E+000	9.6979463E-008	-2.1024334E-001
2	0	0	1	0	0	6.514699835424835E+001	8.5370302E-001	8.5375172E-001	1.079319727328425E-004	2.000000000000000E+000	3.4093767E-007	40	1.0634497E+000	9.2147104E-008	-2.0969802E-001
2	0	0	1	0	0	6.614699832898623E+001	8.5370302E-001	8.5375172E-001	1.036708261985253E-004	2.000000000000000E+000	4.4460850E-007	40	1.0628808E+000	8.8509147E-008	-2.0912904E-001
2	1	0	1	0	0	6.714699830372410E+001	8.5370302E-001	8.5377848E-001	1.031794961623930E-004	2.000000000000000E+000	5.4778803E-007	40	1.0623628E+000	8.8092435E-008	-2.0858431E-001
2	1	0	1	0	0	6.814699827846198E+001	8.5370302E-001	8.5380900E-001	1.043859151795267E-004	2.000000000000000E+000	6.5217392E-007	40	1.0618409E+000	8.9125635E-008	-2.0803189E-001
2	0	0	1	0	0	6.914699825319985E+001	8.5370302E-001	8.5377079E-001	1.000232491475102E-004	2.000000000000000E+000	7.5219720E-007	40	1.0613248E+000	8.5396927E-008	-2.0755404E-001
2	1	0	1	0	0	7.014699822793773E+001	8.5370302E-001	8.5370964E-001	9.517782745671255E-005	2.000000000000000E+000	8.4737502E-007	40	1.0608538E+000	8.1254228E-008	-2.0714420E-001
2	1	0	1	0	0	7.114699820267560E+001	8.5370302E-001	8.5378605E-001	9.566382802198036E-005	2.000000000000000E+000	9.4303886E-007	40	1.0603546E+000	8.1676440E-008	-2.0656854E-001
2	0	0	1	0	0	7.215679817716591E+001	8.5370302E-001	8.5381663E-001	9.408873254721282E-005	2.000000000000000E+000	1.0380496E-006	40	1.0598989E+000	8.0334523E-008	-2.0608222E-001
2	1	0	1	0	0	7.241169817072660E+001	8.5879862E-001	8.5883611E-001	1.001193206649866E-004	2.000000000000000E+000	1.1274342E-006	40	1.0587757E+000	8.5986088E-008	-1.9993955E-001
2	0	0	0	0	0	7.291149815810059E+001	8.6879426E-001	8.6884701E-001	2.323367873198149E-004	2.000000000000000E+000	1.3222939E-006	40	1.0554401E+000	2.0186512E-007	-1.8659306E-001
2	0	0	1	0	0	7.341129814547458E+001	8.7879014E-001	8.7885988E-001	3.368995589807296E-004	2.000000000000000E+000	1.5485203E-006	40	1.0522178E+000	2.9608751E-007	-1.7335796E-001
2	0	0	0	0	0	7.391099813285109E+001	8.8878447E-001	8.8886493E-001	4.102691466505177E-004	2.000000000000000E+000	1.8022482E-006	40	1.0490925E+000	3.6467387E-007	-1.6022760E-001
2	0	0	0	0	0	7.441069812022761E+001	8.9877838E-001	8.9886194E-001	4.692974172201218E-004	2.000000000000000E+000	2.0830873E-006	40	1.0459292E+000	4.2183359E-007	-1.4706725E-001
2	0	0	1	0	0	7.491049810760160E+001	9.0877408E-001	9.0885687E-001	5.294026796784541E-004	2.000000000000000E+000	2.3939538E-006	40	1.0424868E+000	4.8115129E-007	-1.3362992E-001
2	1	0	0	0	0	7.541019809497811E+001	9.1876799E-001	9.1884422E-001	5.840196328567031E-004	2.000000000000000E+000	2.7371693E-006	40	1.0389357E+000	5.3662308E-007	-1.2009144E-001
2	1	0	0	0	0	7.590989808235463E+001	9.2876261E-001	9.2883682E-001	6.379695031766674E-004	2.000000000000000E+000	3.1151269E-006	40	1.0351102E+000	5.9256956E-007	-1.0627341E-001
2	1	0	1	0	0	7.640969806972862E+001	9.3875831E-001	9.3882442E-001	6.997122283203035E-004	2.000000000000000E+000	3.5304552E-006	40	1.0308473E+000	6.5690693E-007	-9.2022896E-002
2	1	0	0	0	0	7.690949805710261E+001	9.4875401E-001	9.4881642E-001	7.755635150500286E-004	2.000000000000000E+000	3.9865481E-006	40	1.0260620E+000	7.3586739E-007	-7.7245593E-002
2	1	0	1	0	0	7.740919804447913E+001	9.5874828E-001	9.5879900E-001	8.722570919374190E-004	2.000000000000000E+000	4.4889289E-006	40	1.0207608E+000	8.3631926E-007	-6.1961770E-002
2	1	0	1	0	0	7.790889803185564E+001	9.6874249E-001	9.6880311E-001	9.908477129550787E-004	2.000000000000000E+000	5.0436715E-006	40	1.0147915E+000	9.5993630E-007	-4.5988381E-002
2	1	0	0	0	0	7.840869801922963E+001	9.7873819E-001	9.7879285E-001	1.133620832533828E-003	2.000000000000000E+000	5.6589347E-006	40	1.0081087E+000	1.1095800E-006	-2.9315889E-002
2	1	0	1	0	0	7.890849800660362E+001	9.8873395E-001	9.8879576E-001	1.290290299365691E-003	2.000000000000000E+000	6.3449852E-006	40	1.0007441E+000	1.2758336E-006	-1.1948347E-002
2	1	0	0	0	0	7.931329799637751E+001	9.9683106E-001	9.9689585E-001	1.440411582255378E-003	2.000000000000000E+000	6.9534667E-006	40	9.9413550E-001	1.4359404E-006	2.7603507E-003
2	1	0	1	0	0	7.946679799249978E+001	1.0000283E+000	1.0001034E+000	1.943099196068943E-003	2.000000000000000E+000	7.1983268E-006	40	9.8661935E-001	1.9433000E-006	1.3484001E-002
2	1	0	1	0	0	7.947679799224716E+001	9.9982834E-001	9.9986261E-001	1.215771063925785E-003	2.000000000000000E+000	7.2093535E-006	40	9.9494463E-001	1.2156040E-006	4.9179792E-003
2	1	0	1	0	0	7.973169798580784E+001	9.9473000E-001	9.9478656E-001	5.545615808943988E-004	2.000000000000000E+000	7.3138103E-006	40	1.0027348E+000	5.5167038E-007	-7.9482198E-003
2	1	0	1	0	0	8.023149797318183E+001	9.8473430E-001	9.8478997E-001	2.132463945447604E-004	2.000000000000000E+000	7.4224909E-006	40	1.0076246E+000	2.1000291E-007	-2.2834659E-002
2	0	0	1	0	0	8.073119796055835E+001	9.7474027E-001	9.7480971E-001	7.589694106246276E-005	2.000000000000000E+000	7.4081236E-006	40	1.0106509E+000	7.3985078E-008	-3.5841167E-002
2	0	0	0	0	0	8.123089794793486E+001	9.6474588E-001	9.6482807E-001	4.230952182229904E-007	2.000000000000000E+000	7.3367855E-006	40	1.0133002E+000	4.0821416E-010	-4.8472106E-002
2	0	0	0	0	0	8.173069793530885E+001	9.5475012E-001	9.5483446E-001	-5.719102411518736E-005	2.000000000000000E+000	7.2328603E-006	40	1.0157894E+000	-5.4607959E-008	-6.0954928E-002
2	0	0	0	0	0	8.223049792268284E+001	9.4475448E-001	9.4482803E-001	-9.841496734184384E-005	2.000000000000000E+000	7.1075046E-006	40	1.0181223E+000	-9.2985218E-008	-7.3294282E-002
2	0	0	0	0	0	8.273019791005936E+001	9.3475986E-001	9.3483418E-001	-1.406090695985759E-004	2.000000000000000E+000	6.9674716E-006	40	1.0204626E+000	-1.3144617E-007	-8.5628450E-002
2	1	0	1	0	0	8.322989789743588E+001	9.2476600E-001	9.2482644E-001	-1.703104258637157E-004	2.000000000000000E+000	6.8161185E-006	40	1.0226740E+000	-1.5750759E-007	-9.7847521E-002
2	1	0	1	0	0	8.372969788480987E+001	9.1477036E-001	9.1483623E-001	-1.957181136512049E-004	2.000000000000000E+000	6.6565635E-006	40	1.0249451E+000	-1.7905002E-007	-1.1010891E-001
2	1	0	1	0	0	8.422939787218638E+001	9.0477639E-001	9.0483737E-001	-2.154081687208861E-004	2.000000000000000E+000	6.4917140E-006	40	1.0270920E+000	-1.9490936E-007	-1.2225461E-001
2	1	0	0	0	0	8.472909785956290E+001	8.9478195E-001	8.9484316E-001	-2.332016344515873E-004	2.000000000000000E+000	6.3201437E-006	40	1.0292183E+000	-2.0867888E-007	-1.3437515E-001
2	1	0	0	0	0	8.522889784693689E+001	8.8478613E-001	8.8483691E-001	-2.466624450989776E-004	2.000000000000000E+000	6.1411592E-006	40	1.0313191E+000	-2.1825603E-007	-1.4648223E-001
2	1	0	0	0	0	8.572869783431088E+001	8.7479043E-001	8.7484032E-001	-2.530925222196784E-004	2.000000000000000E+000	5.9554523E-006	40	1.0333477E+000	-2.2141555E-007	-1.5850741E-001
2	1	0	0	0	0	8.622839782168739E+001	8.6479616E-001	8.6485434E-001	-2.625547388730026E-004	2.000000000000000E+000	5.7624934E-006	40	1.0354570E+000	-2.2707161E-007	-1.7060268E-001
2	1	0	1	0	0	8.672809780906391E+001	8.5480207E-001	8.5487235E-001	-2.533809098311025E-004	2.000000000000000E+000	5.5620208E-006	40	1.0373987E+000	-2.1660833E-007	-1.8252635E-001
2	1	0	1	0	0	8.722789779643790E+001	8.4480625E-001	8.4489352E-001	-2.482490326040326E-004	2.000000000000000E+000	5.3515678E-006	40	1.0394256E+000	-2.0974400E-007	-1.9453210E-001
2	1	0	1	0	0	8.772759778381442E+001	8.3481246E-001	8.3490115E-001	-2.465865681534864E-004	2.000000000000000E+000	5.1266602E-006	40	1.0415908E+000	-2.0587541E-007	-2.0668966E-001
2	0	0	0	0	0	8.822729777119093E+001	8.2481813E-001	8.2490855E-001	-2.432408172502918E-004	2.000000000000000E+000	4.8888141E-006	40	1.0439972E+000	-2.0065143E-007	-2.1908861E-001
2	0	0	0	0	0	8.872709775856492E+001	8.1482226E-001	8.1491280E-001	-2.641286336112362E-004	2.000000000000000E+000	4.6348287E-006	40	1.0466362E+000	-2.1524180E-007	-2.3172343E-001
2	0	0	0	0	0	8.922689774593891E+001	8.0482638E-001	8.0491650E-001	-2.924019829150413E-004	2.000000000000000E+000	4.3580480E-006	40	1.0495591E+000	-2.3535918E-007	-2.4464262E-001
2	0	0	0	0	0	8.972659773331543E+001	7.9483223E-001	7.9492670E-001	-3.308247689267413E-004	2.000000000000000E+000	4.0577702E-006	40	1.0528251E+000	-2.6298144E-007	-2.5789839E-001
2	0	0	1	0	0	9.022629772069195E+001	7.8483820E-001	7.8492272E-001	-3.948452387804050E-004	2.000000000000000E+000	3.7307550E-006	40	1.0566335E+000	-3.0992300E-007	-2.7171075E-001
2	0	0	1	0	0	9.072609770806594E+001	7.7484226E-001	7.7491760E-001	-4.523498319170035E-004	2.000000000000000E+000	3.3753395E-006	40	1.0606841E+000	-3.5053384E-007	-2.8576648E-001
2	0	0	1	0	0	9.122589769543993E+001	7.6484638E-001	7.6495081E-001	-5.127385375301981E-004	2.000000000000000E+000	2.9903877E-006	40	1.0649421E+000	-3.9221976E-007	-2.9999131E-001
2	0	0	1	0	0	9.172559768281644E+001	7.5485212E-001	7.5496364E-001	-5.918494742998791E-004	2.000000000000000E+000	2.5744607E-006	40	1.0696803E+000	-4.4682483E-007	-3.1471670E-001
2	0	0	0	0	0	9.222529767019296E+001	7.4485821E-001	7.4496150E-001	-6.635005788974404E-004	2.000000000000000E+000	2.1253147E-006	40	1.0745822E+000	-4.9428240E-007	-3.2962072E-001
2	0	0	0	0	0	9.272509765756695E+001	7.3486239E-001	7.3496616E-001	-7.450881387886001E-004	2.000000000000000E+000	1.6442500E-006	40	1.0798571E+000	-5.4761455E-007	-3.4489095E-001
2	0	0	0	0	0	9.322479764494346E+001	7.2486854E-001	7.2496265E-001	-8.005202713965570E-004	2.000000000000000E+000	1.1327396E-006	40	1.0850462E+000	-5.8034732E-007	-3.6008352E-001
2	0	0	1	0	0	9.372449763231998E+001	7.1487415E-001	7.1496332E-001	-8.847943931733688E-004	2.000000000000000E+000	5.9041878E-007	40	1.0908833E+000	-6.3259552E-007	-3.7591994E-001
2	0	0	1	0	0	9.421929761982028E+001	7.0497829E-001	7.0507264E-001	-9.438710737912845E-004	2.000000000000000E+000	2.3865065E-008	40	1.0965520E+000	-6.6549768E-007	-3.9147937E-001
2	1	0	1	0	0	9.446339761365380E+001	6.9998163E-001	7.0005351E-001	4.135842900723219E-003	2.000000000000000E+000	-2.6091968E-007	40	1.0373011E+000	2.8953114E-006	-3.3724755E-001
2	0	0	1	0	1	9.447339761340118E+001	7.0018148E-001	7.0026362E-001	-1.141910996428427E-003	2.000000000000000E+000	-2.7096115E-007	40	1.1014091E+000	-7.9963871E-007	-4.0114546E-001
2	1	0	1	0	1	9.472829760696186E+001	7.0527840E-001	7.0532012E-001	-7.815415752706901E-004	2.000000000000000E+000	-4.2084159E-007	40	1.0981727E+000	-5.5123701E-007	-3.9285254E-001
2	1	0	0	0	1	9.522799759433838E+001	7.1527219E-001	7.1531630E-001	-5.120947597102538E-004	2.000000000000000E+000	-6.4959238E-007	40	1.0962777E+000	-3.6630973E-007	-3.8096142E-001
2	1	0	0	0	1	9.572769758171489E+001	7.2526670E-001	7.2532827E-001	-3.527769995758812E-004	2.000000000000000E+000	-7.8327145E-007	40	1.0949489E+000	-2.5587914E-007	-3.6962062E-001
2	1	0	1	0	1	9.622749756908888E+001	7.3526245E-001	7.3532116E-001	-2.509267700015016E-004	2.000000000000000E+000	-8.5695552E-007	40	1.0937912E+000	-1.8451176E-007	-3.5847008E-001
2	1	0	0	0	1	9.672729755646287E+001	7.4525827E-001	7.4532366E-001	-1.646178039983420E-004	2.000000000000000E+000	-8.8403254E-007	40	1.0924542E+000	-1.2269355E-007	-3.4713054E-001
2	1	0	1	0	1	9.722699754383939E+001	7.5525236E-001	7.5531715E-001	-1.009998523194311E-004	2.000000000000000E+000	-8.7180251E-007	40	1.0911469E+000	-7.6286923E-008	-3.3582979E-001
2	1	0	1	0	1	9.772669753121590E+001	7.6524657E-001	7.6529199E-001	-4.036098398613603E-005	2.000000000000000E+000	-8.2438777E-007	40	1.0896813E+000	-3.0887939E-008	-3.2438928E-001
2	1	0	0	0	1	9.822649751858989E+001	7.7524233E-001	7.7526468E-001	-8.400544247962603E-006	2.000000000000000E+000	-7.4607789E-007	40	1.0882375E+000	-6.5126451E-009	-3.1297284E-001
2	1	0	1	0	1	9.872629750596388E+001	7.8523809E-001	7.8525776E-001	2.814200451275951E-005	2.000000000000000E+000	-6.3955730E-007	40	1.0865437E+000	2.2098728E-008	-3.0128592E-001
2	1	0	0	0	1	9.922599749334040E+001	7.9523247E-001	7.9524636E-001	4.790058217442572E-005	2.000000000000000E+000	-5.0747258E-007	40	1.0847402E+000	3.8092764E-008	-2.8949380E-001
2	1	0	0	0	1	9.972569748071692E+001	8.0522656E-001	8.0523926E-001	5.925849428955842E-005	2.000000000000000E+000	-3.5182020E-007	40	1.0829911E+000	4.7717265E-008	-2.7775186E-001
2	1	0	1	0	1	1.002254974680909E+002	8.1522226E-001	8.1523013E-001	8.434930672291015E-005	2.000000000000000E+000	-1.7408189E-007	40	1.0808661E+000	6.8764095E-008	-2.6563597E-001
2	1	0	0	0	1	1.007251974554674E+002	8.2521611E-001	8.2523561E-001	1.324943022201832E-004	2.000000000000000E+000	2.5557114E-008	40	1.0782477E+000	1.0933901E-007	-2.5301206E-001
2	1	0	0	0	1	1.012248974428439E+002	8.3521056E-001	8.3526874E-001	2.185889767868135E-004	2.000000000000000E+000	2.4489898E-007	40	1.0751113E+000	1.8258054E-007	-2.3984253E-001
2	0	0	1	0	1	1.017246974302179E+002	8.4520638E-001	8.4527546E-001	2.986581700672756E-004	2.000000000000000E+000	4.8427972E-007	40	1.0719213E+000	2.5244842E-007	-2.2664589E-001
2	0	0	0	0	1	1.020594974217602E+002	8.5190201E-001	8.5198432E-001	3.480142659997030E-004	2.000000000000000E+000	6.5318318E-007	40	1.0697215E+000	2.9650269E-007	-2.1773714E-001
2	0	0	1	0	1	1.021461974195699E+002	8.5370302E-001	8.5386628E-001	6.457082499764510E-004	2.000000000000000E+000	7.0078465E-007	40	1.0656431E+000	5.5134848E-007	-2.1177679E-001