EC-Lab ASCII FILE
Nb header lines : 64                          

Cyclic Voltammetry

Run on channel : 1 (SN 5836)
User : 
Electrode connection : standard
Potential control : Ewe
Ewe ctrl range : min = -2,50 V, max = 2,50 V
Ewe,I filtering : 50 kHz
Safety Limits :
	Do not start on E overload
Channel : Grounded
Acquisition started on : 01/17/2024 15:22:05.748
Technique started on : 01/17/2024 15:22:05.748
Loaded Setting File :  NONE
Saved on :
	File : 2024-01-17 15_21_57 ec-included_01_C01.mpr
	Directory : C:\Users\Spectro Inlets\Spectro Inlets Dropbox\03 LGA\In-line MS\Chip testing on EC-MS setup\failing_datasets\2024-01-17 15_21_57 ec-included\
	Host : 192.168.1.105
Device : SP-200 (SN 0763)
Address : USB
EC-Lab for windows v11.43 (software)
Internet server v11.40 (firmware)
Command interpretor v11.43 (firmware)
Electrode material : 
Initial state : 
Electrolyte : 
Comments : 
Cable : standard
Reference electrode : SCE Saturated Calomel Electrode (0,241 V)
Electrode surface area : 0,001 cm²
Characteristic mass : 0,001 g
Equivalent Weight : 0,000 g/eq.
Density : 0,000 g/cm3
Volume (V) : 0,001 cm³
Text export
   Mode : Standard
   Time format : Elapsed
Cycle Definition : Charge/Discharge alternance
Ei (V)              0,000               
vs.                 Eoc                 
dE/dt               20,000              
dE/dt unit          mV/s                
E1 (V)              1,000               
vs.                 Ref                 
Step percent        50                  
N                   10                  
E range min (V)     -2,500              
E range max (V)     2,500               
I Range             Auto                
I Range min         Unset               
I Range max         Unset               
I Range init        Unset               
Bandwidth           8                   
E2 (V)              -1,000              
vs.                 Ref                 
nc cycles           0                   
Reverse Scan        1                   
Ef (V)              0,000               
vs.                 Eoc                 

mode	ox/red	error	control changes	counter inc.	time/s	control/V	Ewe/V	<I>/mA	cycle number	(Q-Qo)/C	I Range	P/W	
2	0	0	1	0	0,000000000000000E+000	-2,0176152E-004	-1,7848902E-004	-1,088311728381086E-005	1,000000000000000E+000	0,0000000E+000	44	1,9425169E-012
2	1	0	1	0	2,749999930529157E-002	3,4836985E-004	4,2555731E-004	1,266906171782396E-004	1,000000000000000E+000	3,3056611E-009	44	5,3914120E-011
2	1	0	1	0	7,749999804218533E-002	1,3474410E-003	1,4014549E-003	3,240711851133352E-004	1,000000000000000E+000	1,5205945E-008	43	4,5417115E-010
2	1	0	1	0	1,274999967790791E-001	2,3469264E-003	2,3981524E-003	5,209703427950709E-004	1,000000000000000E+000	3,6940385E-008	43	1,2493663E-009
2	1	0	1	0	1,774999955159728E-001	3,3464117E-003	3,4118295E-003	7,173309866091038E-004	1,000000000000000E+000	6,8514225E-008	43	2,4474109E-009
2	1	0	1	0	2,274999942528666E-001	4,3458971E-003	4,4136210E-003	9,140561854076596E-004	1,000000000000000E+000	1,0991153E-007	43	4,0342978E-009
2	1	0	1	0	2,924999926108285E-001	5,6452290E-003	5,7089878E-003	1,167851735535260E-003	1,000000000000000E+000	1,7946718E-007	43	6,6672512E-009
2	1	0	1	0	3,573999909713166E-001	6,9432207E-003	7,0039402E-003	1,418176852199332E-003	1,000000000000000E+000	2,6194917E-007	42	9,9328261E-009
2	1	0	1	0	4,072999897107366E-001	7,9440447E-003	8,0016041E-003	1,613635736349459E-003	1,000000000000000E+000	3,3859934E-007	42	1,2911674E-008
2	1	0	1	0	4,572999884476303E-001	8,9435298E-003	9,0023354E-003	1,810763874446925E-003	1,000000000000000E+000	4,2524633E-007	42	1,6301104E-008
2	1	0	1	0	5,072999871845241E-001	9,9430149E-003	1,0007097E-002	2,007077656108533E-003	1,000000000000000E+000	5,2171492E-007	42	2,0085022E-008
2	1	0	1	0	5,572999859214178E-001	1,0942500E-002	1,1016529E-002	2,205575053974625E-003	1,000000000000000E+000	6,2806203E-007	42	2,4297782E-008
2	1	0	1	0	6,072999846583116E-001	1,1941987E-002	1,2000493E-002	2,401649191462497E-003	1,000000000000000E+000	7,4424128E-007	42	2,8820974E-008
2	1	0	1	0	6,572999833952053E-001	1,2941472E-002	1,3002283E-002	2,598659907191721E-003	1,000000000000000E+000	8,7027144E-007	42	3,3788510E-008
2	1	0	1	0	7,072999821320991E-001	1,3940956E-002	1,4001740E-002	2,794912423403871E-003	1,000000000000000E+000	1,0061192E-006	42	3,9133639E-008
2	1	0	1	0	7,571999808715191E-001	1,4939997E-002	1,5003275E-002	2,992105133113321E-003	1,000000000000000E+000	1,1515195E-006	42	4,4891376E-008
2	1	0	1	0	8,070999796109390E-001	1,5939929E-002	1,6000016E-002	3,189092743990909E-003	1,000000000000000E+000	1,3067512E-006	42	5,1025534E-008
2	1	0	1	0	8,570999783478328E-001	1,6939413E-002	1,6986951E-002	3,385202889115105E-003	1,000000000000000E+000	1,4721186E-006	42	5,7504277E-008
2	1	0	1	0	9,070999770847266E-001	1,7938901E-002	1,8000839E-002	3,582133574700164E-003	1,000000000000000E+000	1,6473304E-006	42	6,4481412E-008
2	1	0	1	0	9,570999758216203E-001	1,8938385E-002	1,8994568E-002	3,778943438966835E-003	1,000000000000000E+000	1,8324070E-006	42	7,1779397E-008
2	1	0	1	0	1,007099974558514E+000	1,9937869E-002	2,0024374E-002	3,975846000011427E-003	1,000000000000000E+000	2,0272873E-006	42	7,9613827E-008
2	1	0	1	0	1,057099973295408E+000	2,0937355E-002	2,1024467E-002	4,172396453213864E-003	1,000000000000000E+000	2,2320173E-006	42	8,7722412E-008
2	1	0	1	0	1,107099972032302E+000	2,1936839E-002	2,2014376E-002	4,369649648584460E-003	1,000000000000000E+000	2,4465812E-006	42	9,6195109E-008
2	1	0	1	0	1,156999970771722E+000	2,2936771E-002	2,2996854E-002	4,564495308603100E-003	1,000000000000000E+000	2,6705034E-006	42	1,0496903E-007
2	1	0	1	0	1,206899969511142E+000	2,3935813E-002	2,4000978E-002	4,759555339222565E-003	1,000000000000000E+000	2,9041414E-006	42	1,1423398E-007
2	1	0	1	0	1,256899968248035E+000	2,4935298E-002	2,4991941E-002	4,957047917371366E-003	1,000000000000000E+000	3,1480688E-006	42	1,2388625E-007
2	1	0	1	0	1,306899966984929E+000	2,5934780E-002	2,5991822E-002	5,153957837912324E-003	1,000000000000000E+000	3,4018308E-006	42	1,3396075E-007
2	1	0	1	0	1,356899965721823E+000	2,6934268E-002	2,6994465E-002	5,349550903904148E-003	1,000000000000000E+000	3,6654317E-006	42	1,4440826E-007
2	1	0	1	0	1,406899964458717E+000	2,7933754E-002	2,7985429E-002	5,546022380089943E-003	1,000000000000000E+000	3,9388228E-006	42	1,5520781E-007
2	1	0	1	0	1,456899963195610E+000	2,8933238E-002	2,8993167E-002	5,742618557565901E-003	1,000000000000000E+000	4,2220822E-006	42	1,6649670E-007
2	1	0	1	0	1,506899961932504E+000	2,9932724E-002	3,0000053E-002	5,940186259707561E-003	1,000000000000000E+000	4,5151833E-006	42	1,7820591E-007
2	1	0	1	0	1,556799960671924E+000	3,0933551E-002	3,1005742E-002	6,138107341465318E-003	1,000000000000000E+000	4,8175493E-006	42	1,9031657E-007
2	1	0	1	0	1,606699959411344E+000	3,1931695E-002	3,1990472E-002	6,334144423750271E-003	1,000000000000000E+000	5,1297261E-006	42	2,0263226E-007
2	1	0	1	0	1,656699958148238E+000	3,2931179E-002	3,3000968E-002	6,530087253647968E-003	1,000000000000000E+000	5,4523744E-006	42	2,1549920E-007
2	1	0	1	0	1,706699956885132E+000	3,3930663E-002	3,3993207E-002	6,726578086036827E-003	1,000000000000000E+000	5,7848056E-006	42	2,2865797E-007
2	1	0	1	0	1,756699955622025E+000	3,4930151E-002	3,5003062E-002	6,922120266136977E-003	1,000000000000000E+000	6,1270503E-006	42	2,4229541E-007
2	1	0	1	0	1,806699954358919E+000	3,5929635E-002	3,5996579E-002	7,119608399484140E-003	1,000000000000000E+000	6,4791070E-006	42	2,5628154E-007
2	1	0	1	0	1,856699953095813E+000	3,6929123E-002	3,6984578E-002	7,317347222447604E-003	1,000000000000000E+000	6,8410300E-006	42	2,7062899E-007
2	1	0	1	0	1,906599951835233E+000	3,7926823E-002	3,7994534E-002	7,511931567590557E-003	1,000000000000000E+000	7,2120069E-006	42	2,8541234E-007
2	1	0	1	0	1,956499950574653E+000	3,8928095E-002	3,9002169E-002	7,708983676921979E-003	1,000000000000000E+000	7,5928069E-006	42	3,0066710E-007
2	1	0	1	0	2,006499949311547E+000	3,9927579E-002	3,9982520E-002	7,906451583106933E-003	1,000000000000000E+000	7,9841848E-006	42	3,1611987E-007
2	1	0	1	0	2,056499948048440E+000	4,0927064E-002	4,0981129E-002	8,101937438671790E-003	1,000000000000000E+000	8,3853984E-006	42	3,3202653E-007
2	1	0	1	0	2,106499946785334E+000	4,1926548E-002	4,1975066E-002	8,298055248343626E-003	1,000000000000000E+000	8,7964027E-006	42	3,4831143E-007
2	1	0	1	0	2,156499945522228E+000	4,2926036E-002	4,2984504E-002	8,495516975893187E-003	1,000000000000000E+000	9,2172686E-006	42	3,6517559E-007
2	1	0	1	0	2,206499944259122E+000	4,3925520E-002	4,4003274E-002	8,692485432321664E-003	1,000000000000000E+000	9,6480017E-006	42	3,8249783E-007
2	1	0	1	0	2,256499942996015E+000	4,4925004E-002	4,4984266E-002	8,889278417444546E-003	1,000000000000000E+000	1,0088595E-005	42	3,9987768E-007
2	1	0	1	0	2,306399941735435E+000	4,5923602E-002	4,5991614E-002	9,085723470038776E-003	1,000000000000000E+000	1,0538063E-005	42	4,1786708E-007
2	1	0	1	0	2,356299940474855E+000	4,6923973E-002	4,6992727E-002	9,282001193949153E-003	1,000000000000000E+000	1,0997367E-005	42	4,3618655E-007
2	1	0	1	0	2,406299939211749E+000	4,7923461E-002	4,8000887E-002	9,478885955306632E-003	1,000000000000000E+000	1,1467393E-005	42	4,5499493E-007
2	1	0	1	0	2,456299937948643E+000	4,8922949E-002	4,8993763E-002	9,674486751599199E-003	1,000000000000000E+000	1,1947243E-005	42	4,7398950E-007
2	1	0	1	0	2,506299936685537E+000	4,9922429E-002	4,9983028E-002	9,870572624667701E-003	1,000000000000000E+000	1,2436877E-005	42	4,9336109E-007
2	1	0	1	0	2,556299935422430E+000	5,0921913E-002	5,0964657E-002	1,006732788799263E-002	1,000000000000000E+000	1,2936339E-005	42	5,1307791E-007
2	1	0	1	0	2,606299934159324E+000	5,1921401E-002	5,1985335E-002	1,026379193192245E-002	1,000000000000000E+000	1,3445626E-005	42	5,3356666E-007
2	1	0	1	0	2,656299932896218E+000	5,2920889E-002	5,2995406E-002	1,046180601244689E-002	1,000000000000000E+000	1,3964773E-005	42	5,5442769E-007
2	1	0	1	0	2,706199931635638E+000	5,3920373E-002	5,3976737E-002	1,065612506671021E-002	1,000000000000000E+000	1,4492658E-005	42	5,7518287E-007
2	1	0	1	0	2,756099930375058E+000	5,4919861E-002	5,4970331E-002	1,085340088724890E-002	1,000000000000000E+000	1,5030340E-005	42	5,9661505E-007
2	1	0	1	0	2,821099928733020E+000	5,6219190E-002	5,6306113E-002	1,111509536054429E-002	1,000000000000000E+000	1,5746931E-005	42	6,2584780E-007
2	1	0	1	0	2,886099927090982E+000	5,7518519E-002	5,7571176E-002	1,136971543073067E-002	1,000000000000000E+000	1,6476777E-005	41	6,5456788E-007
2	1	0	1	0	2,936099925827875E+000	5,8518011E-002	5,8575083E-002	1,156535587506369E-002	1,000000000000000E+000	1,7051210E-005	41	6,7744168E-007
2	1	0	1	0	2,986099924564769E+000	5,9517495E-002	5,9586853E-002	1,176449895676876E-002	1,000000000000000E+000	1,7635499E-005	41	7,0100947E-007
2	1	0	1	0	3,036099923301663E+000	6,0516980E-002	6,0584191E-002	1,196116932745399E-002	1,000000000000000E+000	1,8229714E-005	41	7,2465775E-007
2	1	0	1	0	3,085999922041083E+000	6,1515573E-002	6,1572962E-002	1,215758325612287E-002	1,000000000000000E+000	1,8832516E-005	41	7,4857843E-007
2	1	0	1	0	3,135899920780503E+000	6,2515952E-002	6,2566757E-002	1,235343485475626E-002	1,000000000000000E+000	1,9445113E-005	41	7,7291435E-007
2	1	0	1	0	3,185899919517396E+000	6,3515432E-002	6,3593388E-002	1,255029531333735E-002	1,000000000000000E+000	2,0068734E-005	41	7,9811582E-007
2	1	0	1	0	3,235899918254290E+000	6,4514920E-002	6,4582229E-002	1,274846770792029E-002	1,000000000000000E+000	2,0702251E-005	41	8,2332446E-007
2	1	0	1	0	3,285899916991184E+000	6,5514401E-002	6,5574683E-002	1,294593343778550E-002	1,000000000000000E+000	2,1345659E-005	41	8,4892548E-007
2	1	0	1	0	3,335899915728078E+000	6,6513881E-002	6,6599816E-002	1,314043591911382E-002	1,000000000000000E+000	2,1998881E-005	41	8,7515059E-007
2	1	0	1	0	3,385899914464972E+000	6,7513376E-002	6,7574017E-002	1,333614366551589E-002	1,000000000000000E+000	2,2661859E-005	41	9,0117680E-007
2	1	0	1	0	3,435899913201865E+000	6,8512857E-002	6,8573475E-002	1,353299274557723E-002	1,000000000000000E+000	2,3334665E-005	41	9,2800434E-007
2	1	0	1	0	3,485799911941285E+000	6,9512337E-002	6,9590546E-002	1,373179391367715E-002	1,000000000000000E+000	2,4015970E-005	41	9,5560301E-007
2	1	0	1	0	3,535699910680705E+000	7,0511825E-002	7,0569843E-002	1,392902047114659E-002	1,000000000000000E+000	2,4707195E-005	41	9,8296880E-007
2	1	0	1	0	3,585699909417599E+000	7,1511313E-002	7,1581393E-002	1,412369255881962E-002	1,000000000000000E+000	2,5409568E-005	41	1,0109936E-006
2	1	0	1	0	3,635699908154493E+000	7,2510801E-002	7,2577663E-002	1,432044811641663E-002	1,000000000000000E+000	2,6121737E-005	41	1,0393446E-006
2	1	0	1	0	3,685699906891386E+000	7,3510282E-002	7,3574580E-002	1,451812820353859E-002	1,000000000000000E+000	2,6843709E-005	41	1,0681651E-006
2	1	0	1	0	3,735699905628280E+000	7,4509777E-002	7,4583590E-002	1,471146274383910E-002	1,000000000000000E+000	2,7575479E-005	41	1,0972337E-006
2	1	0	1	0	3,785699904365174E+000	7,5509258E-002	7,5577743E-002	1,490867553770342E-002	1,000000000000000E+000	2,8317012E-005	41	1,1267640E-006
2	1	0	1	0	3,835699903102068E+000	7,6508746E-002	7,6551080E-002	1,510492959965229E-002	1,000000000000000E+000	2,9068398E-005	41	1,1562987E-006
2	1	0	1	0	3,885599901841488E+000	7,7509567E-002	7,7566236E-002	1,530027794360966E-002	1,000000000000000E+000	2,9828034E-005	41	1,1867850E-006
2	1	0	1	0	3,935499900580908E+000	7,8507714E-002	7,8571871E-002	1,549607951245788E-002	1,000000000000000E+000	3,0597479E-005	41	1,2175559E-006
2	1	0	1	0	3,985499899317801E+000	7,9507194E-002	7,9556465E-002	1,569615868437624E-002	1,000000000000000E+000	3,1378320E-005	41	1,2487309E-006
2	1	0	1	0	4,035499898054695E+000	8,0506682E-002	8,0555499E-002	1,589087578812959E-002	1,000000000000000E+000	3,2169042E-005	41	1,2800974E-006
2	1	0	1	0	4,085499896791589E+000	8,1506170E-002	8,1563659E-002	1,608877289712571E-002	1,000000000000000E+000	3,2969576E-005	41	1,3122592E-006
2	1	0	1	0	4,135499895528483E+000	8,2505658E-002	8,2557589E-002	1,628356282297452E-002	1,000000000000000E+000	3,3779928E-005	41	1,3443317E-006
2	1	0	1	0	4,185499894265377E+000	8,3505146E-002	8,3555572E-002	1,648145957625718E-002	1,000000000000000E+000	3,4600107E-005	41	1,3771178E-006
2	1	0	1	0	4,235499893002270E+000	8,4504627E-002	8,4561393E-002	1,667878043587769E-002	1,000000000000000E+000	3,5430166E-005	41	1,4103809E-006
2	1	0	1	0	4,285299891744216E+000	8,5504107E-002	8,5564882E-002	1,687572282085953E-002	1,000000000000000E+000	3,6266712E-005	41	1,4439693E-006
2	1	0	1	0	4,335299890481110E+000	8,6503603E-002	8,6550541E-002	1,707259702272018E-002	1,000000000000000E+000	3,7116464E-005	41	1,4776425E-006
2	1	0	1	0	4,385299889218004E+000	8,7503083E-002	8,7548517E-002	1,726853891051622E-002	1,000000000000000E+000	3,7976009E-005	41	1,5118350E-006
2	1	0	1	0	4,435299887954898E+000	8,8502571E-002	8,8560708E-002	1,746536389260581E-002	1,000000000000000E+000	3,8845399E-005	41	1,5467450E-006
2	1	0	1	0	4,485299886691791E+000	8,9502059E-002	8,9552090E-002	1,766389649990879E-002	1,000000000000000E+000	3,9724637E-005	41	1,5818389E-006
2	1	0	1	0	4,535299885428685E+000	9,0501539E-002	9,0551339E-002	1,786000422995393E-002	1,000000000000000E+000	4,0613781E-005	41	1,6172473E-006
2	1	0	1	0	4,585299884165579E+000	9,1501027E-002	9,1557153E-002	1,805633070654472E-002	1,000000000000000E+000	4,1512758E-005	41	1,6531862E-006
2	1	0	1	0	4,635199882904999E+000	9,2499182E-002	9,2560180E-002	1,825193300021552E-002	1,000000000000000E+000	4,2419695E-005	41	1,6894022E-006
2	1	0	1	0	4,685099881644419E+000	9,3499996E-002	9,3557343E-002	1,844934162175010E-002	1,000000000000000E+000	4,3336422E-005	41	1,7260713E-006
2	1	0	1	0	4,735099880381313E+000	9,4499484E-002	9,4576553E-002	1,864321317299517E-002	1,000000000000000E+000	4,4264780E-005	41	1,7632108E-006
2	1	0	1	0	4,785099879118206E+000	9,5498964E-002	9,5566228E-002	1,884057341764367E-002	1,000000000000000E+000	4,5202927E-005	41	1,8005226E-006
2	1	0	1	0	4,835099877855100E+000	9,6498452E-002	9,6547864E-002	1,903678050169860E-002	1,000000000000000E+000	4,6150893E-005	41	1,8379606E-006
2	1	0	1	0	4,885099876591994E+000	9,7497940E-002	9,7561337E-002	1,923355240702496E-002	1,000000000000000E+000	4,7108653E-005	41	1,8764511E-006
2	1	0	1	0	4,935099875328888E+000	9,8497413E-002	9,8571822E-002	1,942985561995386E-002	1,000000000000000E+000	4,8076268E-005	41	1,9152362E-006
2	1	0	1	0	4,985099874065781E+000	9,9496908E-002	9,9555992E-002	1,962778022236850E-002	1,000000000000000E+000	4,9053746E-005	41	1,9540630E-006
2	1	0	1	0	5,034999872805201E+000	1,0049595E-001	1,0054950E-001	1,982589664394216E-002	1,000000000000000E+000	5,0039147E-005	41	1,9934841E-006
2	1	0	1	0	5,084899871544621E+000	1,0149588E-001	1,0157105E-001	2,002259506843990E-002	1,000000000000000E+000	5,1034382E-005	41	2,0337159E-006
2	1	0	1	0	5,134899870281515E+000	1,0249536E-001	1,0256349E-001	2,021683618012404E-002	1,000000000000000E+000	5,2041418E-005	41	2,0735092E-006
2	1	0	1	0	5,184899869018409E+000	1,0349485E-001	1,0356952E-001	2,041473635903526E-002	1,000000000000000E+000	5,3058251E-005	41	2,1143444E-006
2	1	0	1	0	5,234899867755303E+000	1,0449433E-001	1,0456134E-001	2,061254527264586E-002	1,000000000000000E+000	5,4084983E-005	41	2,1552755E-006
2	1	0	1	0	5,284899866492196E+000	1,0549381E-001	1,0557523E-001	2,080939565698994E-002	1,000000000000000E+000	5,5121560E-005	41	2,1969568E-006
2	1	0	1	0	5,334899865229090E+000	1,0649330E-001	1,0655496E-001	2,100396539403675E-002	1,000000000000000E+000	5,6167937E-005	41	2,2380766E-006
2	1	0	1	0	5,384899863965984E+000	1,0749280E-001	1,0755972E-001	2,120133831933210E-002	1,000000000000000E+000	5,7224104E-005	41	2,2804099E-006
2	1	0	1	0	5,434799862705404E+000	1,0849317E-001	1,0856021E-001	2,139749884005626E-002	1,000000000000000E+000	5,8287995E-005	41	2,3229170E-006
2	1	0	1	0	5,484699861444824E+000	1,0949176E-001	1,0955437E-001	2,159494366626157E-002	1,000000000000000E+000	5,9361719E-005	41	2,3658206E-006
2	1	0	1	0	5,534699860181718E+000	1,1049125E-001	1,1055299E-001	2,179116665609870E-002	1,000000000000000E+000	6,0447448E-005	41	2,4090787E-006
2	1	0	1	0	5,584699858918611E+000	1,1149073E-001	1,1154713E-001	2,198771122817150E-002	1,000000000000000E+000	6,1542974E-005	41	2,4526662E-006
2	1	0	1	0	5,634699857655505E+000	1,1249021E-001	1,1256208E-001	2,218406274052403E-002	1,000000000000000E+000	6,2648309E-005	41	2,4970843E-006
2	1	0	1	0	5,684699856392399E+000	1,1348971E-001	1,1356325E-001	2,238110459142328E-002	1,000000000000000E+000	6,3763444E-005	41	2,5416712E-006
2	1	0	1	0	5,734699855129293E+000	1,1448919E-001	1,1455908E-001	2,257436900011578E-002	1,000000000000000E+000	6,4888358E-005	41	2,5860991E-006
2	1	0	1	0	5,784699853866186E+000	1,1548868E-001	1,1557319E-001	2,277120034408725E-002	1,000000000000000E+000	6,6023043E-005	41	2,6317402E-006
2	1	0	1	0	5,834599852605606E+000	1,1648995E-001	1,1656509E-001	2,296747988295220E-002	1,000000000000000E+000	6,7165303E-005	41	2,6772063E-006
2	1	0	1	0	5,884499851345026E+000	1,1748764E-001	1,1756298E-001	2,316429262066745E-002	1,000000000000000E+000	6,8317342E-005	41	2,7232632E-006
2	1	0	1	0	5,934499850081920E+000	1,1848712E-001	1,1855460E-001	2,336153383280536E-002	1,000000000000000E+000	6,9481532E-005	41	2,7696174E-006
2	1	0	1	0	5,984499848818814E+000	1,1948661E-001	1,1955468E-001	2,355990470257685E-002	1,000000000000000E+000	7,0655595E-005	41	2,8166967E-006
2	1	0	1	0	6,034499847555708E+000	1,2048610E-001	1,2055606E-001	2,375649284847358E-002	1,000000000000000E+000	7,1839539E-005	41	2,8639890E-006
2	1	0	1	0	6,084499846292601E+000	1,2148558E-001	1,2155613E-001	2,395147387222907E-002	1,000000000000000E+000	7,3033247E-005	41	2,9114485E-006
2	1	0	1	0	6,134499845029495E+000	1,2248507E-001	1,2257195E-001	2,414904638081439E-002	1,000000000000000E+000	7,4236814E-005	41	2,9599955E-006
2	1	0	1	0	6,184399843768915E+000	1,2348279E-001	1,2354650E-001	2,434463893288796E-002	1,000000000000000E+000	7,5447751E-005	41	3,0076951E-006
2	1	0	1	0	6,234299842508335E+000	1,2448405E-001	1,2454347E-001	2,454251605430963E-002	1,000000000000000E+000	7,6668555E-005	41	3,0566100E-006
2	1	0	1	0	6,284299841245229E+000	1,2548353E-001	1,2555566E-001	2,473984290500765E-002	1,000000000000000E+000	7,7901612E-005	41	3,1062275E-006
2	1	0	1	0	6,334299839982123E+000	1,2648301E-001	1,2654938E-001	2,493473672290775E-002	1,000000000000000E+000	7,9144491E-005	41	3,1554755E-006
2	1	0	1	0	6,384299838719016E+000	1,2748249E-001	1,2754035E-001	2,513002158849742E-002	1,000000000000000E+000	8,0397127E-005	41	3,2050918E-006
2	1	0	1	0	6,434299837455910E+000	1,2848198E-001	1,2854406E-001	2,532675722613936E-002	1,000000000000000E+000	8,1659593E-005	41	3,2556043E-006
2	1	0	1	0	6,484299836192804E+000	1,2948146E-001	1,2955391E-001	2,552577574237219E-002	1,000000000000000E+000	8,2931940E-005	41	3,3069641E-006
2	1	0	1	0	6,534299834929698E+000	1,3048095E-001	1,3054296E-001	2,572147749554106E-002	1,000000000000000E+000	8,4214189E-005	41	3,3577578E-006
2	1	0	1	0	6,584199833669118E+000	1,3147955E-001	1,3152458E-001	2,591719352734073E-002	1,000000000000000E+000	8,5503591E-005	41	3,4087479E-006
2	1	0	1	0	6,634099832408538E+000	1,3247994E-001	1,3252978E-001	2,611317478672222E-002	1,000000000000000E+000	8,6802786E-005	41	3,4607733E-006
2	1	0	1	0	6,684099831145431E+000	1,3347940E-001	1,3354899E-001	2,630976421965497E-002	1,000000000000000E+000	8,8114357E-005	41	3,5136425E-006
2	1	0	1	0	6,734099829882325E+000	1,3447890E-001	1,3454060E-001	2,650326930624608E-002	1,000000000000000E+000	8,9435707E-005	41	3,5657658E-006
2	1	0	1	0	6,784099828619219E+000	1,3547838E-001	1,3552350E-001	2,669983222235556E-002	1,000000000000000E+000	9,0766829E-005	41	3,6184547E-006
2	1	0	1	0	6,834099827356113E+000	1,3647786E-001	1,3655648E-001	2,689700459423305E-002	1,000000000000000E+000	9,2107788E-005	41	3,6729602E-006
2	1	0	1	0	6,884099826093006E+000	1,3747735E-001	1,3754724E-001	2,709235765333137E-002	1,000000000000000E+000	9,3458533E-005	41	3,7264790E-006
2	1	0	1	0	6,934099824829900E+000	1,3847683E-001	1,3854733E-001	2,728880377900266E-002	1,000000000000000E+000	9,4819123E-005	41	3,7807908E-006
2	1	0	1	0	6,983999823569320E+000	1,3947633E-001	1,3954777E-001	2,748772759101781E-002	1,000000000000000E+000	9,6186835E-005	41	3,8358507E-006
2	1	0	1	0	7,033899822308740E+000	1,4047581E-001	1,4054346E-001	2,768538262764059E-002	1,000000000000000E+000	9,7564480E-005	41	3,8909993E-006
2	1	0	1	0	7,083899821045634E+000	1,4147529E-001	1,4154059E-001	2,788076815367846E-002	1,000000000000000E+000	9,8954646E-005	41	3,9462602E-006
2	1	0	1	0	7,133899819782528E+000	1,4247479E-001	1,4253984E-001	2,807831332622168E-002	1,000000000000000E+000	1,0035465E-004	41	4,0022783E-006
2	1	0	1	0	7,183899818519421E+000	1,4347427E-001	1,4352424E-001	2,827466392665406E-002	1,000000000000000E+000	1,0176448E-004	41	4,0580999E-006
2	1	0	1	0	7,233899817256315E+000	1,4447375E-001	1,4452092E-001	2,847048334121971E-002	1,000000000000000E+000	1,0318417E-004	41	4,1145804E-006
2	1	0	1	0	7,283899815993209E+000	1,4547324E-001	1,4553589E-001	2,866917424749038E-002	1,000000000000000E+000	1,0461370E-004	41	4,1723938E-006
2	1	0	1	0	7,333899814730103E+000	1,4647271E-001	1,4654894E-001	2,886433785574305E-002	1,000000000000000E+000	1,0605307E-004	41	4,2300380E-006
2	1	0	1	0	7,383799813469523E+000	1,4747354E-001	1,4755517E-001	2,906188855762026E-002	1,000000000000000E+000	1,0749935E-004	41	4,2882320E-006
2	1	0	1	0	7,433699812208943E+000	1,4847170E-001	1,4852639E-001	2,925762174116392E-002	1,000000000000000E+000	1,0895548E-004	41	4,3455289E-006
2	1	0	1	0	7,483699810945836E+000	1,4947118E-001	1,4954072E-001	2,945670168156972E-002	1,000000000000000E+000	1,1042438E-004	41	4,4049766E-006
2	1	0	1	0	7,533699809682730E+000	1,5047066E-001	1,5052532E-001	2,965178445016076E-002	1,000000000000000E+000	1,1190314E-004	41	4,4633443E-006
2	1	0	1	0	7,583699808419624E+000	1,5147015E-001	1,5153135E-001	2,984680162949704E-002	1,000000000000000E+000	1,1339164E-004	41	4,5227262E-006
2	1	0	1	0	7,633699807156518E+000	1,5246964E-001	1,5253443E-001	3,004254824136976E-002	1,000000000000000E+000	1,1488989E-004	41	4,5825227E-006
2	1	0	1	0	7,683699805893411E+000	1,5346913E-001	1,5350565E-001	3,023757369481708E-002	1,000000000000000E+000	1,1639792E-004	41	4,6416385E-006
2	1	0	1	0	7,733699804630305E+000	1,5446860E-001	1,5451869E-001	3,043141685581457E-002	1,000000000000000E+000	1,1791569E-004	41	4,7022227E-006
2	1	0	1	0	7,783499803372251E+000	1,5546809E-001	1,5551920E-001	3,062827833685139E-002	1,000000000000000E+000	1,1943715E-004	41	4,7632852E-006
2	1	0	1	0	7,833499802109145E+000	1,5646757E-001	1,5652205E-001	3,082469975817259E-002	1,000000000000000E+000	1,2097453E-004	41	4,8247452E-006
2	1	0	1	0	7,883499800846039E+000	1,5746705E-001	1,5752745E-001	3,102222564457735E-002	1,000000000000000E+000	1,2252173E-004	41	4,8868519E-006
2	1	0	1	0	7,933499799582933E+000	1,5846655E-001	1,5850696E-001	3,121853713808531E-002	1,000000000000000E+000	1,2407878E-004	41	4,9483556E-006
2	1	0	1	0	7,983499798319826E+000	1,5946604E-001	1,5950622E-001	3,141648672883288E-002	1,000000000000000E+000	1,2564572E-004	41	5,0111248E-006
2	1	0	1	0	8,033499797056720E+000	1,6046554E-001	1,6050884E-001	3,161219827813544E-002	1,000000000000000E+000	1,2722249E-004	41	5,0740373E-006
2	1	0	1	0	8,083499795793614E+000	1,6146500E-001	1,6150680E-001	3,180852522469920E-002	1,000000000000000E+000	1,2880903E-004	41	5,1372931E-006
2	1	0	1	0	8,133399794533034E+000	1,6246316E-001	1,6250502E-001	3,200548563250633E-002	1,000000000000000E+000	1,3040220E-004	41	5,2010519E-006
2	1	0	1	0	8,183299793272454E+000	1,6346397E-001	1,6351147E-001	3,220282544606123E-002	1,000000000000000E+000	1,3200523E-004	41	5,2655314E-006
2	1	0	1	0	8,233299792009348E+000	1,6446346E-001	1,6452153E-001	3,239896912472665E-002	1,000000000000000E+000	1,3362132E-004	41	5,3303279E-006
2	1	0	1	0	8,283299790746241E+000	1,6546296E-001	1,6551507E-001	3,259549554247654E-002	1,000000000000000E+000	1,3524725E-004	41	5,3950457E-006
2	1	0	1	0	8,333299789483135E+000	1,6646242E-001	1,6651897E-001	3,279190583809943E-002	1,000000000000000E+000	1,3688300E-004	41	5,4604743E-006
2	1	0	1	0	8,383299788220029E+000	1,6746192E-001	1,6752565E-001	3,298854188027756E-002	1,000000000000000E+000	1,3852856E-004	41	5,5264268E-006
2	1	0	1	0	8,433299786956923E+000	1,6846141E-001	1,6851173E-001	3,318660000459872E-002	1,000000000000000E+000	1,4018401E-004	41	5,5923315E-006
2	1	0	1	0	8,483299785693816E+000	1,6946091E-001	1,6951796E-001	3,338423108302613E-002	1,000000000000000E+000	1,4184932E-004	41	5,6592271E-006
2	1	0	1	0	8,533199784433236E+000	1,7045993E-001	1,7052239E-001	3,358068233339179E-002	1,000000000000000E+000	1,4352112E-004	41	5,7262582E-006
2	1	0	1	0	8,583099783172656E+000	1,7145985E-001	1,7151560E-001	3,377672975572454E-002	1,000000000000000E+000	1,4520269E-004	41	5,7932361E-006
2	1	0	1	0	8,633099781909550E+000	1,7245935E-001	1,7250086E-001	3,397265781165545E-002	1,000000000000000E+000	1,4689748E-004	41	5,8603127E-006
2	1	0	1	0	8,683099780646444E+000	1,7345883E-001	1,7351621E-001	3,416755713556924E-002	1,000000000000000E+000	1,4860200E-004	41	5,9286253E-006
2	1	0	1	0	8,733099779383338E+000	1,7445831E-001	1,7451292E-001	3,436291103975631E-002	1,000000000000000E+000	1,5031631E-004	41	5,9967720E-006
2	1	0	1	0	8,783099778120231E+000	1,7545778E-001	1,7552340E-001	3,455944426564711E-002	1,000000000000000E+000	1,5204037E-004	41	6,0659913E-006
2	1	0	1	0	8,833099776857125E+000	1,7645727E-001	1,7650291E-001	3,475453417868951E-002	1,000000000000000E+000	1,5377426E-004	41	6,1342766E-006
2	1	0	1	0	8,883099775594019E+000	1,7745677E-001	1,7750023E-001	3,495063555978795E-002	1,000000000000000E+000	1,5551792E-004	41	6,2037461E-006
2	1	0	1	0	8,932999774333439E+000	1,7845671E-001	1,7851570E-001	3,514758059366291E-002	1,000000000000000E+000	1,5726790E-004	41	6,2743952E-006
2	1	0	1	0	8,982899773072859E+000	1,7945574E-001	1,7950150E-001	3,534604204145983E-002	1,000000000000000E+000	1,5902777E-004	41	6,3446678E-006
2	1	0	1	0	9,032899771809753E+000	1,8045524E-001	1,8051474E-001	3,554279610290423E-002	1,000000000000000E+000	1,6080104E-004	41	6,4159985E-006
2	1	0	1	0	9,082899770546646E+000	1,8145472E-001	1,8150444E-001	3,573807786408550E-002	1,000000000000000E+000	1,6258405E-004	41	6,4866199E-006
2	1	0	1	0	9,132899769283540E+000	1,8245418E-001	1,8249775E-001	3,593399339027842E-002	1,000000000000000E+000	1,6437691E-004	41	6,5578729E-006
2	1	0	1	0	9,182899768020434E+000	1,8345368E-001	1,8350695E-001	3,613013032116698E-002	1,000000000000000E+000	1,6617955E-004	41	6,6301300E-006
2	1	0	1	0	9,232899766757328E+000	1,8445316E-001	1,8450600E-001	3,632775751477196E-002	1,000000000000000E+000	1,6799205E-004	41	6,7026890E-006
2	1	0	1	0	9,282899765494221E+000	1,8545265E-001	1,8551521E-001	3,652318514866260E-002	1,000000000000000E+000	1,6981436E-004	41	6,7756064E-006
2	1	0	1	0	9,332799764233641E+000	1,8645392E-001	1,8649961E-001	3,671902479019989E-002	1,000000000000000E+000	1,7164281E-004	41	6,8480840E-006
2	1	0	1	0	9,382699762973061E+000	1,8745162E-001	1,8749778E-001	3,691516136233192E-002	1,000000000000000E+000	1,7348102E-004	41	6,9215107E-006
2	1	0	1	0	9,432699761709955E+000	1,8845111E-001	1,8849047E-001	3,711358330178027E-002	1,000000000000000E+000	1,7533280E-004	41	6,9955568E-006
2	1	0	1	0	9,482699760446849E+000	1,8945061E-001	1,8949668E-001	3,731155639979977E-002	1,000000000000000E+000	1,7719447E-004	41	7,0704159E-006
2	1	0	1	0	9,532699759183743E+000	1,9045009E-001	1,9050595E-001	3,750866620922111E-002	1,000000000000000E+000	1,7906603E-004	41	7,1456243E-006
2	1	0	1	0	9,582699757920636E+000	1,9144957E-001	1,9150707E-001	3,770412077385654E-002	1,000000000000000E+000	1,8094739E-004	41	7,2206058E-006
2	1	0	1	0	9,632699756657530E+000	1,9244906E-001	1,9250800E-001	3,790048173525265E-002	1,000000000000000E+000	1,8283857E-004	41	7,2961457E-006
2	1	0	1	0	9,682599755396950E+000	1,9344674E-001	1,9351207E-001	3,809457650804757E-002	1,000000000000000E+000	1,8473569E-004	41	7,3717601E-006
2	1	0	1	0	9,732499754136370E+000	1,9444802E-001	1,9449654E-001	3,829089239136219E-002	1,000000000000000E+000	1,8664256E-004	41	7,4474460E-006
2	1	0	1	0	9,782499752873264E+000	1,9544750E-001	1,9551061E-001	3,848780613151143E-002	1,000000000000000E+000	1,8856303E-004	41	7,5247744E-006
2	1	0	1	0	9,832499751610158E+000	1,9644700E-001	1,9650646E-001	3,868335746746099E-002	1,000000000000000E+000	1,9049335E-004	41	7,6015294E-006
2	1	0	1	0	9,882499750347051E+000	1,9744647E-001	1,9751041E-001	3,888064738863195E-002	1,000000000000000E+000	1,9243349E-004	41	7,6793322E-006
2	1	0	1	0	9,932499749083945E+000	1,9844596E-001	1,9849539E-001	3,907776876197511E-002	1,000000000000000E+000	1,9438349E-004	41	7,7567565E-006
2	1	0	1	0	9,982499747820839E+000	1,9944544E-001	1,9950019E-001	3,927605231809946E-002	1,000000000000000E+000	1,9634336E-004	41	7,8355797E-006
2	1	0	1	0	1,003249974655773E+001	2,0044494E-001	2,0049474E-001	3,947401859504357E-002	1,000000000000000E+000	1,9831315E-004	41	7,9143329E-006
2	1	0	1	0	1,008239974529715E+001	2,0144354E-001	2,0149758E-001	3,966870423018554E-002	1,000000000000000E+000	2,0028878E-004	41	7,9931478E-006
2	1	0	1	0	1,013229974403657E+001	2,0244391E-001	2,0250703E-001	3,986601945857920E-002	1,000000000000000E+000	2,0227423E-004	41	8,0731497E-006
2	1	0	1	0	1,018229974277347E+001	2,0344338E-001	2,0351879E-001	4,006404781075955E-002	1,000000000000000E+000	2,0427354E-004	41	8,1537864E-006
2	1	0	1	0	1,023229974151036E+001	2,0444286E-001	2,0450997E-001	4,026135461215208E-002	1,000000000000000E+000	2,0628274E-004	41	8,2338483E-006
2	1	0	1	0	1,028229974024725E+001	2,0544235E-001	2,0549354E-001	4,045743793162893E-002	1,000000000000000E+000	2,0830173E-004	41	8,3137420E-006
2	1	0	1	0	1,033229973898415E+001	2,0644183E-001	2,0650294E-001	4,065211872673703E-002	1,000000000000000E+000	2,1033050E-004	41	8,3947825E-006
2	1	0	1	0	1,038229973772104E+001	2,0744133E-001	2,0749584E-001	4,084801971394986E-002	1,000000000000000E+000	2,1236905E-004	41	8,4757939E-006
2	1	0	1	0	1,043229973645794E+001	2,0844080E-001	2,0849253E-001	4,104659773185165E-002	1,000000000000000E+000	2,1441747E-004	41	8,5579095E-006
2	1	0	1	0	1,048219973519736E+001	2,0944029E-001	2,0950955E-001	4,124390440491577E-002	1,000000000000000E+000	2,1647166E-004	41	8,6409918E-006
2	1	0	1	0	1,053209973393678E+001	2,1043979E-001	2,1050970E-001	4,144034494162990E-002	1,000000000000000E+000	2,1853570E-004	41	8,7235949E-006
2	1	0	1	0	1,058209973267367E+001	2,1143927E-001	2,1150555E-001	4,163668267601320E-002	1,000000000000000E+000	2,2061367E-004	41	8,8063889E-006
2	1	0	1	0	1,063209973141056E+001	2,1243876E-001	2,1250838E-001	4,183290466769690E-002	1,000000000000000E+000	2,2270146E-004	41	8,8898432E-006
2	1	0	1	0	1,068209973014746E+001	2,1343823E-001	2,1350148E-001	4,202681431477809E-002	1,000000000000000E+000	2,2479901E-004	41	8,9727873E-006
2	1	0	1	0	1,073209972888435E+001	2,1443772E-001	2,1449564E-001	4,222405266396156E-002	1,000000000000000E+000	2,2690630E-004	41	9,0568756E-006
2	1	0	1	0	1,078209972762124E+001	2,1543722E-001	2,1550995E-001	4,242038433181322E-002	1,000000000000000E+000	2,2902341E-004	41	9,1420152E-006
2	1	0	1	0	1,083209972635814E+001	2,1643670E-001	2,1650283E-001	4,261650137724024E-002	1,000000000000000E+000	2,3115033E-004	41	9,2265927E-006
2	1	0	1	0	1,088199972509756E+001	2,1743755E-001	2,1751428E-001	4,281286255658601E-002	1,000000000000000E+000	2,3328280E-004	41	9,3124090E-006
2	1	0	1	0	1,093189972383698E+001	2,1843567E-001	2,1850556E-001	4,301010037306696E-002	1,000000000000000E+000	2,3542513E-004	41	9,3979461E-006
2	1	0	1	0	1,098189972257387E+001	2,1943517E-001	2,1949378E-001	4,320607603424109E-002	1,000000000000000E+000	2,3758157E-004	41	9,4834650E-006
2	1	0	1	0	1,103189972131077E+001	2,2043464E-001	2,2049874E-001	4,340337039644093E-002	1,000000000000000E+000	2,3974784E-004	41	9,5703881E-006
2	1	0	1	0	1,108189972004766E+001	2,2143413E-001	2,2150372E-001	4,359901183353809E-002	1,000000000000000E+000	2,4192395E-004	41	9,6573431E-006
2	1	0	1	0	1,113189971878455E+001	2,2243361E-001	2,2249363E-001	4,379676144432154E-002	1,000000000000000E+000	2,4410989E-004	41	9,7445009E-006
2	1	0	1	0	1,118189971752145E+001	2,2343308E-001	2,2349139E-001	4,399394815253022E-002	1,000000000000000E+000	2,4630572E-004	41	9,8322680E-006
2	1	0	1	0	1,123189971625834E+001	2,2443257E-001	2,2449827E-001	4,419153179818149E-002	1,000000000000000E+000	2,4851138E-004	41	9,9209228E-006
2	1	0	1	0	1,128169971500029E+001	2,2543207E-001	2,2548772E-001	4,438688734472618E-002	1,000000000000000E+000	2,5071803E-004	41	1,0008698E-005
2	1	0	1	0	1,133169971373718E+001	2,2643155E-001	2,2648403E-001	4,458165728418084E-002	1,000000000000000E+000	2,5294328E-004	41	1,0097034E-005
2	1	0	1	0	1,138169971247407E+001	2,2743103E-001	2,2749090E-001	4,478016075315983E-002	1,000000000000000E+000	2,5517834E-004	41	1,0187079E-005
2	1	0	1	0	1,143169971121097E+001	2,2843052E-001	2,2847529E-001	4,497479455097142E-002	1,000000000000000E+000	2,5742326E-004	41	1,0275629E-005
2	1	0	1	0	1,148169970994786E+001	2,2943002E-001	2,2947876E-001	4,517126093290890E-002	1,000000000000000E+000	2,5967797E-004	41	1,0365845E-005
2	1	0	1	0	1,153169970868476E+001	2,3042949E-001	2,3048627E-001	4,536819600724362E-002	1,000000000000000E+000	2,6194251E-004	41	1,0456746E-005
2	1	0	1	0	1,158169970742165E+001	2,3142897E-001	2,3147154E-001	4,556379252958487E-002	1,000000000000000E+000	2,6421685E-004	41	1,0546722E-005
2	1	0	1	0	1,163159970616107E+001	2,3242714E-001	2,3247026E-001	4,576016367030444E-002	1,000000000000000E+000	2,6649641E-004	41	1,0637877E-005
2	1	0	1	0	1,168149970490049E+001	2,3342796E-001	2,3348595E-001	4,595519636792164E-002	1,000000000000000E+000	2,6878578E-004	41	1,0729893E-005
2	1	0	1	0	1,173149970363738E+001	2,3442744E-001	2,3447733E-001	4,615160802603452E-002	1,000000000000000E+000	2,7108949E-004	41	1,0821505E-005
2	1	0	1	0	1,178149970237428E+001	2,3542693E-001	2,3547405E-001	4,634924430434606E-002	1,000000000000000E+000	2,7340304E-004	41	1,0914045E-005
2	1	0	1	0	1,183149970111117E+001	2,3642640E-001	2,3647667E-001	4,654468730505945E-002	1,000000000000000E+000	2,7572643E-004	41	1,1006733E-005
2	1	0	1	0	1,188149969984806E+001	2,3742589E-001	2,3747784E-001	4,674234045065817E-002	1,000000000000000E+000	2,7805963E-004	41	1,1100270E-005
2	1	0	1	0	1,193149969858496E+001	2,3842537E-001	2,3848069E-001	4,693889107417171E-002	1,000000000000000E+000	2,8040272E-004	41	1,1194019E-005
2	1	0	1	0	1,198149969732185E+001	2,3942487E-001	2,3946127E-001	4,713562989814424E-002	1,000000000000000E+000	2,8275562E-004	41	1,1287158E-005
2	1	0	1	0	1,203139969606127E+001	2,4042393E-001	2,4047595E-001	4,733178263526483E-002	1,000000000000000E+000	2,8511364E-004	41	1,1382155E-005
2	1	0	1	0	1,208129969480069E+001	2,4142383E-001	2,4146888E-001	4,752813054990312E-002	1,000000000000000E+000	2,8748144E-004	41	1,1476564E-005
2	1	0	1	0	1,213129969353759E+001	2,4242331E-001	2,4247999E-001	4,772521373470906E-002	1,000000000000000E+000	2,8986382E-004	41	1,1572410E-005
2	1	0	1	0	1,218129969227448E+001	2,4342281E-001	2,4348582E-001	4,792319076929097E-002	1,000000000000000E+000	2,9225607E-004	41	1,1668618E-005
2	1	0	1	0	1,223129969101137E+001	2,4442230E-001	2,4448444E-001	4,812027895133267E-002	1,000000000000000E+000	2,9465821E-004	41	1,1764660E-005
2	1	0	1	0	1,228129968974827E+001	2,4542178E-001	2,4547815E-001	4,831603381144656E-002	1,000000000000000E+000	2,9707016E-004	41	1,1860530E-005
2	1	0	1	0	1,233129968848516E+001	2,4642128E-001	2,4648781E-001	4,851163655122814E-002	1,000000000000000E+000	2,9949192E-004	41	1,1957527E-005
2	1	0	1	0	1,238129968722205E+001	2,4742074E-001	2,4747050E-001	4,870886221114112E-002	1,000000000000000E+000	3,0192349E-004	41	1,2054006E-005
2	1	0	1	0	1,243119968596147E+001	2,4842069E-001	2,4847761E-001	4,890855160546903E-002	1,000000000000000E+000	3,0436009E-004	41	1,2152680E-005
2	1	0	1	0	1,248109968470089E+001	2,4941972E-001	2,4947535E-001	4,910340366229671E-002	1,000000000000000E+000	3,0680653E-004	41	1,2250089E-005
2	1	0	1	0	1,253109968343779E+001	2,5041920E-001	2,5047249E-001	4,930017221098154E-002	1,000000000000000E+000	3,0926766E-004	41	1,2348337E-005
2	1	0	1	0	1,258109968217468E+001	2,5141868E-001	2,5145325E-001	4,949520450706280E-002	1,000000000000000E+000	3,1173858E-004	41	1,2445730E-005
2	1	0	1	0	1,263109968091158E+001	2,5241819E-001	2,5245714E-001	4,969221329385473E-002	1,000000000000000E+000	3,1421933E-004	41	1,2545154E-005
2	1	0	1	0	1,268109967964847E+001	2,5341767E-001	2,5346830E-001	4,988633517900287E-002	1,000000000000000E+000	3,1670983E-004	41	1,2644605E-005
2	1	0	1	0	1,273109967838536E+001	2,5441715E-001	2,5446585E-001	5,008153732935050E-002	1,000000000000000E+000	3,1921006E-004	41	1,2744041E-005
2	1	0	1	0	1,278109967712226E+001	2,5541663E-001	2,5547102E-001	5,027757170265171E-002	1,000000000000000E+000	3,2172006E-004	41	1,2844463E-005
2	1	0	1	0	1,283099967586168E+001	2,5641790E-001	2,5646299E-001	5,047431312700768E-002	1,000000000000000E+000	3,2423489E-004	41	1,2944794E-005
2	1	0	1	0	1,288089967460110E+001	2,5741562E-001	2,5746167E-001	5,067020859914251E-002	1,000000000000000E+000	3,2675953E-004	41	1,3045636E-005
2	1	0	1	0	1,293089967333799E+001	2,5841507E-001	2,5847661E-001	5,086914603425963E-002	1,000000000000000E+000	3,2929907E-004	41	1,3148485E-005
2	1	0	1	0	1,298089967207488E+001	2,5941458E-001	2,5946990E-001	5,106554296799015E-002	1,000000000000000E+000	3,3184848E-004	41	1,3249971E-005
2	1	0	1	0	1,303089967081178E+001	2,6041406E-001	2,6048720E-001	5,126270680274389E-002	1,000000000000000E+000	3,3440773E-004	41	1,3353279E-005
2	1	0	1	0	1,308089966954867E+001	2,6141354E-001	2,6146308E-001	5,145931479314148E-002	1,000000000000000E+000	3,3697678E-004	41	1,3454711E-005
2	1	0	1	0	1,313089966828557E+001	2,6241302E-001	2,6247823E-001	5,165660144174822E-002	1,000000000000000E+000	3,3955573E-004	41	1,3558733E-005
2	1	0	1	0	1,318079966702499E+001	2,6341072E-001	2,6347235E-001	5,185468658664183E-002	1,000000000000000E+000	3,4213933E-004	41	1,3662276E-005
2	1	0	1	0	1,323069966576440E+001	2,6441199E-001	2,6447228E-001	5,205001855372537E-002	1,000000000000000E+000	3,4473283E-004	41	1,3765787E-005
2	1	0	1	0	1,328069966450130E+001	2,6541147E-001	2,6548299E-001	5,224823443805449E-002	1,000000000000000E+000	3,4734129E-004	41	1,3871017E-005
2	1	0	1	0	1,333069966323819E+001	2,6641098E-001	2,6648480E-001	5,244253592186243E-002	1,000000000000000E+000	3,4995959E-004	41	1,3975138E-005
2	1	0	1	0	1,338069966197509E+001	2,6741046E-001	2,6746428E-001	5,263845406955603E-002	1,000000000000000E+000	3,5258770E-004	41	1,4078906E-005
2	1	0	1	0	1,343069966071198E+001	2,6840994E-001	2,6848197E-001	5,283841038881626E-002	1,000000000000000E+000	3,5522567E-004	41	1,4186160E-005
2	1	0	1	0	1,348069965944887E+001	2,6940942E-001	2,6946765E-001	5,303344362484363E-002	1,000000000000000E+000	3,5787345E-004	41	1,4290797E-005
2	1	0	1	0	1,353069965818577E+001	2,7040890E-001	2,7046499E-001	5,322975818826658E-002	1,000000000000000E+000	3,6053106E-004	41	1,4396785E-005
2	1	0	1	0	1,358059965692519E+001	2,7140751E-001	2,7147341E-001	5,342629246445335E-002	1,000000000000000E+000	3,6319319E-004	41	1,4503818E-005
2	1	0	1	0	1,363049965566461E+001	2,7240789E-001	2,7247325E-001	5,362384589561431E-002	1,000000000000000E+000	3,6586513E-004	41	1,4611063E-005
2	1	0	1	0	1,368049965440150E+001	2,7340737E-001	2,7347529E-001	5,381703289674106E-002	1,000000000000000E+000	3,6855220E-004	41	1,4717629E-005
2	1	0	1	0	1,373049965313839E+001	2,7440685E-001	2,7446157E-001	5,401309840036195E-002	1,000000000000000E+000	3,7124901E-004	41	1,4824520E-005
2	1	0	1	0	1,378049965187529E+001	2,7540633E-001	2,7546865E-001	5,420926490074229E-002	1,000000000000000E+000	3,7395564E-004	41	1,4932953E-005
2	1	0	1	0	1,383049965061218E+001	2,7640581E-001	2,7646747E-001	5,440581494217966E-002	1,000000000000000E+000	3,7667205E-004	41	1,5041438E-005
2	1	0	1	0	1,388049964934908E+001	2,7740532E-001	2,7747351E-001	5,460222199973164E-002	1,000000000000000E+000	3,7939829E-004	41	1,5150670E-005
2	1	0	1	0	1,393049964808597E+001	2,7840480E-001	2,7847806E-001	5,479995871859566E-002	1,000000000000000E+000	3,8213440E-004	41	1,5260586E-005
2	1	0	1	0	1,398039964682539E+001	2,7940428E-001	2,7946475E-001	5,499685222057604E-002	1,000000000000000E+000	3,8487487E-004	41	1,5369682E-005
2	1	0	1	0	1,403029964556481E+001	2,8040376E-001	2,8045785E-001	5,519395941626959E-002	1,000000000000000E+000	3,8762519E-004	41	1,5479580E-005
2	1	0	1	0	1,408029964430170E+001	2,8140324E-001	2,8146496E-001	5,538914207782997E-002	1,000000000000000E+000	3,9039078E-004	41	1,5590103E-005
2	1	0	1	0	1,413029964303860E+001	2,8240275E-001	2,8247693E-001	5,558578789027202E-002	1,000000000000000E+000	3,9316618E-004	41	1,5701702E-005
2	1	0	1	0	1,418029964177549E+001	2,8340223E-001	2,8347600E-001	5,578257224557032E-002	1,000000000000000E+000	3,9595144E-004	41	1,5813021E-005
2	1	0	1	0	1,423029964051238E+001	2,8440171E-001	2,8445697E-001	5,597933223988460E-002	1,000000000000000E+000	3,9874655E-004	41	1,5923712E-005
2	1	0	1	0	1,428029963924928E+001	2,8540120E-001	2,8545129E-001	5,617613805009525E-002	1,000000000000000E+000	4,0155146E-004	41	1,6035552E-005
2	1	0	1	0	1,433029963798617E+001	2,8640068E-001	2,8645906E-001	5,637287068249736E-002	1,000000000000000E+000	4,0436620E-004	41	1,6148519E-005
2	1	0	1	0	1,438019963672559E+001	2,8740153E-001	2,8746924E-001	5,656842624207248E-002	1,000000000000000E+000	4,0718511E-004	41	1,6261682E-005
2	1	0	1	0	1,443009963546501E+001	2,8839964E-001	2,8846371E-001	5,676615778011884E-002	1,000000000000000E+000	4,1001386E-004	41	1,6374977E-005
2	1	0	1	0	1,448009963420191E+001	2,8939915E-001	2,8946868E-001	5,696352701461693E-002	1,000000000000000E+000	4,1285812E-004	41	1,6489157E-005
2	1	0	1	0	1,453009963293880E+001	2,9039863E-001	2,9046455E-001	5,716118178571813E-002	1,000000000000000E+000	4,1571227E-004	41	1,6603297E-005
2	1	0	1	0	1,458009963167569E+001	2,9139811E-001	2,9146630E-001	5,735538712771660E-002	1,000000000000000E+000	4,1857621E-004	41	1,6717162E-005
2	1	0	1	0	1,463009963041259E+001	2,9239759E-001	2,9246473E-001	5,755223671871193E-002	1,000000000000000E+000	4,2144992E-004	41	1,6832000E-005
2	1	0	1	0	1,468009962914948E+001	2,9339707E-001	2,9344866E-001	5,774412358490172E-002	1,000000000000000E+000	4,2433335E-004	41	1,6944936E-005
2	1	0	1	0	1,473009962788638E+001	2,9439658E-001	2,9445365E-001	5,794211714183595E-002	1,000000000000000E+000	4,2722657E-004	41	1,7061267E-005
2	1	0	1	0	1,477989962662832E+001	2,9539606E-001	2,9545674E-001	5,813704117872343E-002	1,000000000000000E+000	4,3011797E-004	41	1,7176981E-005
2	1	0	1	0	1,482989962536521E+001	2,9639557E-001	2,9644537E-001	5,833376025677550E-002	1,000000000000000E+000	4,3303077E-004	41	1,7292774E-005
2	1	0	1	0	1,487989962410211E+001	2,9739505E-001	2,9745859E-001	5,852972537589551E-002	1,000000000000000E+000	4,3595338E-004	41	1,7410170E-005
2	1	0	1	0	1,492989962283900E+001	2,9839450E-001	2,9845721E-001	5,872886564962043E-002	1,000000000000000E+000	4,3888588E-004	41	1,7528053E-005
2	1	0	1	0	1,497989962157590E+001	2,9939401E-001	2,9945898E-001	5,892425625481545E-002	1,000000000000000E+000	4,4182825E-004	41	1,7645398E-005
2	1	0	1	0	1,502989962031279E+001	3,0039349E-001	3,0045992E-001	5,912010999465434E-002	1,000000000000000E+000	4,4478039E-004	41	1,7763223E-005
2	1	0	1	0	1,507989961904968E+001	3,0139294E-001	3,0145049E-001	5,931512445763321E-002	1,000000000000000E+000	4,4774235E-004	41	1,7880573E-005
2	1	0	1	0	1,512979961778910E+001	3,0239111E-001	3,0244860E-001	5,951382279892070E-002	1,000000000000000E+000	4,5070818E-004	41	1,7999873E-005
2	1	0	1	0	1,517969961652852E+001	3,0339193E-001	3,0345726E-001	5,971052191496184E-002	1,000000000000000E+000	4,5368390E-004	41	1,8119592E-005
2	1	0	1	0	1,522969961526542E+001	3,0439141E-001	3,0446583E-001	5,990817336607013E-002	1,000000000000000E+000	4,5667539E-004	41	1,8239993E-005
2	1	0	1	0	1,527969961400231E+001	3,0539092E-001	3,0544940E-001	6,010478512487460E-002	1,000000000000000E+000	4,5967672E-004	41	1,8358971E-005
2	1	0	1	0	1,532969961273920E+001	3,0639040E-001	3,0644715E-001	6,030146874211484E-002	1,000000000000000E+000	4,6268789E-004	41	1,8479213E-005
2	1	0	1	0	1,537969961147610E+001	3,0738989E-001	3,0746186E-001	6,049836866764557E-002	1,000000000000000E+000	4,6570893E-004	41	1,8600940E-005
2	1	0	1	0	1,542969961021299E+001	3,0838937E-001	3,0845049E-001	6,069654225440797E-002	1,000000000000000E+000	4,6873986E-004	41	1,8721877E-005
2	1	0	1	0	1,547969960894989E+001	3,0938885E-001	3,0945122E-001	6,089316750876617E-002	1,000000000000000E+000	4,7178066E-004	41	1,8843466E-005
2	1	0	1	0	1,552959960768931E+001	3,1038791E-001	3,1046027E-001	6,108951926130217E-002	1,000000000000000E+000	4,7482518E-004	41	1,8965869E-005
2	1	0	1	0	1,557949960642873E+001	3,1138784E-001	3,1147817E-001	6,128730559376644E-002	1,000000000000000E+000	4,7787951E-004	41	1,9089657E-005
2	1	0	1	0	1,562949960516562E+001	3,1238732E-001	3,1246066E-001	6,148193618800080E-002	1,000000000000000E+000	4,8094976E-004	41	1,9210687E-005
2	1	0	1	0	1,567949960390251E+001	3,1338680E-001	3,1346750E-001	6,167652607998930E-002	1,000000000000000E+000	4,8402973E-004	41	1,9333587E-005
2	1	0	1	0	1,572949960263941E+001	3,1438628E-001	3,1445828E-001	6,187267461791635E-002	1,000000000000000E+000	4,8711951E-004	41	1,9456375E-005
2	1	0	1	0	1,577949960137630E+001	3,1538576E-001	3,1545922E-001	6,206898532669869E-002	1,000000000000000E+000	4,9021904E-004	41	1,9580233E-005
2	1	0	1	0	1,582949960011319E+001	3,1638524E-001	3,1642836E-001	6,226244511910611E-002	1,000000000000000E+000	4,9332838E-004	41	1,9701603E-005
2	1	0	1	0	1,587949959885009E+001	3,1738475E-001	3,1745094E-001	6,246021260610890E-002	1,000000000000000E+000	4,9644755E-004	41	1,9828054E-005
2	1	0	1	0	1,592939959758951E+001	3,1838512E-001	3,1846398E-001	6,265941297094185E-002	1,000000000000000E+000	4,9957033E-004	41	1,9954767E-005
2	1	0	1	0	1,597929959632893E+001	3,1938371E-001	3,1943798E-001	6,285473057586277E-002	1,000000000000000E+000	5,0270295E-004	41	2,0078189E-005
2	1	0	1	0	1,602929959506582E+001	3,2038319E-001	3,2044762E-001	6,305175964479093E-002	1,000000000000000E+000	5,0585164E-004	41	2,0204787E-005
2	1	0	1	0	1,607929959380272E+001	3,2138267E-001	3,2145703E-001	6,324714367898804E-002	1,000000000000000E+000	5,0901016E-004	41	2,0331239E-005
2	1	0	1	0	1,612929959253961E+001	3,2238215E-001	3,2244822E-001	6,344473349033945E-002	1,000000000000000E+000	5,1217852E-004	41	2,0457641E-005
2	1	0	1	0	1,617929959127650E+001	3,2338163E-001	3,2345358E-001	6,364182578572253E-002	1,000000000000000E+000	5,1535672E-004	41	2,0585176E-005
2	1	0	1	0	1,622929959001340E+001	3,2438111E-001	3,2446200E-001	6,383956477253006E-002	1,000000000000000E+000	5,1854481E-004	41	2,0713513E-005
2	1	0	1	0	1,627929958875029E+001	3,2538059E-001	3,2545763E-001	6,403529459472579E-002	1,000000000000000E+000	5,2174274E-004	41	2,0840775E-005
2	1	0	1	0	1,632919958748971E+001	3,2638189E-001	3,2646191E-001	6,423132264603237E-002	1,000000000000000E+000	5,2494399E-004	41	2,0969081E-005
2	1	0	1	0	1,637909958622913E+001	3,2737958E-001	3,2746354E-001	6,442791078653576E-002	1,000000000000000E+000	5,2815507E-004	41	2,1097792E-005
2	1	0	1	0	1,642909958496602E+001	3,2837906E-001	3,2845706E-001	6,462560065470102E-002	1,000000000000000E+000	5,3138251E-004	41	2,1226735E-005
2	1	0	1	0	1,647909958370292E+001	3,2937855E-001	3,2946417E-001	6,482225910036066E-002	1,000000000000000E+000	5,3461979E-004	41	2,1356611E-005
2	1	0	1	0	1,652909958243981E+001	3,3037803E-001	3,3044156E-001	6,501741153705454E-002	1,000000000000000E+000	5,3786684E-004	41	2,1484455E-005
2	1	0	1	0	1,657909958117671E+001	3,3137754E-001	3,3144268E-001	6,521263888485174E-002	1,000000000000000E+000	5,4112362E-004	41	2,1614253E-005
2	1	0	1	0	1,662909957991360E+001	3,3237702E-001	3,3243003E-001	6,540822987099768E-002	1,000000000000000E+000	5,4439018E-004	41	2,1743661E-005
2	1	0	1	0	1,667899957865302E+001	3,3337471E-001	3,3343074E-001	6,560251249225479E-002	1,000000000000000E+000	5,4765993E-004	41	2,1873893E-005
2	1	0	1	0	1,672889957739244E+001	3,3437601E-001	3,3442831E-001	6,579902809527166E-002	1,000000000000000E+000	5,5093941E-004	41	2,2005057E-005
2	1	0	1	0	1,677889957612933E+001	3,3537549E-001	3,3543566E-001	6,599497915831987E-002	1,000000000000000E+000	5,5423530E-004	41	2,2137070E-005
2	1	0	1	0	1,682889957486623E+001	3,3637497E-001	3,3643383E-001	6,619128077808378E-002	1,000000000000000E+000	5,5754103E-004	41	2,2268987E-005
2	1	0	1	0	1,687889957360312E+001	3,3737445E-001	3,3742499E-001	6,638900996013358E-002	1,000000000000000E+000	5,6085660E-004	41	2,2401311E-005
2	1	0	1	0	1,692889957234001E+001	3,3837390E-001	3,3843401E-001	6,658696284069221E-002	1,000000000000000E+000	5,6418206E-004	41	2,2535292E-005
2	1	0	1	0	1,697889957107691E+001	3,3937344E-001	3,3944514E-001	6,678345727009921E-002	1,000000000000000E+000	5,6751736E-004	41	2,2669321E-005
2	1	0	1	0	1,702889956981380E+001	3,4037289E-001	3,4045988E-001	6,698118840102807E-002	1,000000000000000E+000	5,7086250E-004	41	2,2804408E-005
2	1	0	1	0	1,707879956855322E+001	3,4137151E-001	3,4144732E-001	6,717610545579289E-002	1,000000000000000E+000	5,7421078E-004	41	2,2937102E-005
2	1	0	1	0	1,712869956729264E+001	3,4237185E-001	3,4244308E-001	6,737366233331427E-002	1,000000000000000E+000	5,7756883E-004	41	2,3071645E-005
2	1	0	1	0	1,717869956602954E+001	3,4337136E-001	3,4344593E-001	6,757274971998944E-002	1,000000000000000E+000	5,8094354E-004	41	2,3207585E-005
2	1	0	1	0	1,722869956476643E+001	3,4437084E-001	3,4444520E-001	6,776842355072765E-002	1,000000000000000E+000	5,8432814E-004	41	2,3342509E-005
2	1	0	1	0	1,727869956350332E+001	3,4537032E-001	3,4544784E-001	6,796402466931843E-002	1,000000000000000E+000	5,8772246E-004	41	2,3478025E-005
2	1	0	1	0	1,732869956224022E+001	3,4636980E-001	3,4644854E-001	6,816036807787063E-002	1,000000000000000E+000	5,9112662E-004	41	2,3614060E-005
2	1	0	1	0	1,737869956097711E+001	3,4736928E-001	3,4745711E-001	6,835778147258120E-002	1,000000000000000E+000	5,9454062E-004	41	2,3751398E-005
2	1	0	1	0	1,742869955971400E+001	3,4836879E-001	3,4844789E-001	6,855493087183562E-002	1,000000000000000E+000	5,9796445E-004	41	2,3887820E-005
2	1	0	1	0	1,747859955845342E+001	3,4936830E-001	3,4943140E-001	6,875079826316316E-002	1,000000000000000E+000	6,0139125E-004	41	2,4023688E-005
2	1	0	1	0	1,752849955719284E+001	3,5036772E-001	3,5043275E-001	6,894887927747179E-002	1,000000000000000E+000	6,0482795E-004	41	2,4161945E-005
2	1	0	1	0	1,757849955592974E+001	3,5136724E-001	3,5143349E-001	6,914412150055999E-002	1,000000000000000E+000	6,0828129E-004	41	2,4299559E-005
2	1	0	1	0	1,762849955466663E+001	3,5236672E-001	3,5244527E-001	6,933837911734986E-002	1,000000000000000E+000	6,1174441E-004	41	2,4437984E-005
2	1	0	1	0	1,767849955340353E+001	3,5336623E-001	3,5344115E-001	6,953457870555146E-002	1,000000000000000E+000	6,1521732E-004	41	2,4576382E-005
2	1	0	1	0	1,772849955214042E+001	3,5436571E-001	3,5442489E-001	6,973170515805213E-002	1,000000000000000E+000	6,1870000E-004	41	2,4714653E-005
2	1	0	1	0	1,777849955087731E+001	3,5536516E-001	3,5542518E-001	6,992743399718582E-002	1,000000000000000E+000	6,2219246E-004	41	2,4853971E-005
2	1	0	1	0	1,782849954961421E+001	3,5636467E-001	3,5641617E-001	7,012184785196052E-002	1,000000000000000E+000	6,2569475E-004	41	2,4992560E-005
2	1	0	1	0	1,787839954835363E+001	3,5736549E-001	3,5742494E-001	7,031887683975097E-002	1,000000000000000E+000	6,2919979E-004	41	2,5133721E-005
2	1	0	1	0	1,792829954709305E+001	3,5836363E-001	3,5843244E-001	7,051749779256422E-002	1,000000000000000E+000	6,3271471E-004	41	2,5275758E-005
2	1	0	1	0	1,797829954582994E+001	3,5936311E-001	3,5942346E-001	7,071414698536205E-002	1,000000000000000E+000	6,3624652E-004	41	2,5416322E-005
2	1	0	1	0	1,802829954456683E+001	3,6036256E-001	3,6041227E-001	7,091036381165455E-002	1,000000000000000E+000	6,3978817E-004	41	2,5556965E-005
2	1	0	1	0	1,807829954330373E+001	3,6136207E-001	3,6143425E-001	7,110761789846459E-002	1,000000000000000E+000	6,4333965E-004	41	2,5700729E-005
2	1	0	1	0	1,812829954204062E+001	3,6236155E-001	3,6244220E-001	7,130376034830177E-002	1,000000000000000E+000	6,4690097E-004	41	2,5843492E-005
2	1	0	1	0	1,817829954077752E+001	3,6336106E-001	3,6343908E-001	7,150050772664462E-002	1,000000000000000E+000	6,5047218E-004	41	2,5986079E-005
2	1	0	1	0	1,822829953951441E+001	3,6436054E-001	3,6442325E-001	7,169697951973864E-002	1,000000000000000E+000	6,5405312E-004	41	2,6128046E-005
2	1	0	1	0	1,827809953825636E+001	3,6536005E-001	3,6542210E-001	7,189418591389618E-002	1,000000000000000E+000	6,5762963E-004	41	2,6271724E-005
2	1	0	1	0	1,832809953699325E+001	3,6635953E-001	3,6643660E-001	7,209101271022261E-002	1,000000000000000E+000	6,6123030E-004	41	2,6416785E-005
2	1	0	1	0	1,837809953573014E+001	3,6735898E-001	3,6743456E-001	7,228896080481784E-002	1,000000000000000E+000	6,6484080E-004	41	2,6561462E-005
2	1	0	1	0	1,842809953446704E+001	3,6835849E-001	3,6843234E-001	7,248592863066317E-002	1,000000000000000E+000	6,6846120E-004	41	2,6706160E-005
2	1	0	1	0	1,847809953320393E+001	3,6935797E-001	3,6943498E-001	7,268129033898862E-002	1,000000000000000E+000	6,7209144E-004	41	2,6851012E-005
2	1	0	1	0	1,852809953194082E+001	3,7035748E-001	3,7043253E-001	7,287756886540175E-002	1,000000000000000E+000	6,7573145E-004	41	2,6996222E-005
2	1	0	1	0	1,857809953067772E+001	3,7135696E-001	3,7143645E-001	7,307419136890927E-002	1,000000000000000E+000	6,7938131E-004	41	2,7142418E-005
2	1	0	1	0	1,862799952941714E+001	3,7235513E-001	3,7242806E-001	7,326928495443438E-002	1,000000000000000E+000	6,8303355E-004	41	2,7287537E-005
2	1	0	1	0	1,867789952815656E+001	3,7335593E-001	3,7342435E-001	7,346438012879208E-002	1,000000000000000E+000	6,8669562E-004	41	2,7433389E-005
2	1	0	1	0	1,872789952689345E+001	3,7435541E-001	3,7443101E-001	7,366107186061099E-002	1,000000000000000E+000	6,9037476E-004	41	2,7580991E-005
2	1	0	1	0	1,877789952563035E+001	3,7535492E-001	3,7543276E-001	7,385644381348472E-002	1,000000000000000E+000	6,9406378E-004	41	2,7728129E-005
2	1	0	1	0	1,882789952436724E+001	3,7635437E-001	3,7642694E-001	7,405334605007530E-002	1,000000000000000E+000	6,9776253E-004	41	2,7875674E-005
2	1	0	1	0	1,887789952310413E+001	3,7735388E-001	3,7741876E-001	7,424908286581478E-002	1,000000000000000E+000	7,0147117E-004	41	2,8022996E-005
2	1	0	1	0	1,892789952184103E+001	3,7835336E-001	3,7842160E-001	7,444793611971845E-002	1,000000000000000E+000	7,0518965E-004	41	2,8172708E-005
2	1	0	1	0	1,897789952057792E+001	3,7935281E-001	3,7941748E-001	7,464365616302870E-002	1,000000000000000E+000	7,0891797E-004	41	2,8321108E-005
2	1	0	1	0	1,902779951931734E+001	3,8035187E-001	3,8042232E-001	7,484018236551293E-002	1,000000000000000E+000	7,1264856E-004	41	2,8470877E-005
2	1	0	1	0	1,907769951805676E+001	3,8135180E-001	3,8142356E-001	7,503459369763754E-002	1,000000000000000E+000	7,1638898E-004	41	2,8619963E-005
2	1	0	1	0	1,912769951679365E+001	3,8235125E-001	3,8241372E-001	7,523270841274010E-002	1,000000000000000E+000	7,2014675E-004	41	2,8770019E-005
2	1	0	1	0	1,917769951553055E+001	3,8335079E-001	3,8340572E-001	7,543028193456996E-002	1,000000000000000E+000	7,2391430E-004	41	2,8920402E-005
2	1	0	1	0	1,922769951426744E+001	3,8435024E-001	3,8442004E-001	7,562579224920910E-002	1,000000000000000E+000	7,2769175E-004	41	2,9072069E-005
2	1	0	1	0	1,927769951300434E+001	3,8534975E-001	3,8541079E-001	7,582192218655515E-002	1,000000000000000E+000	7,3147897E-004	41	2,9222587E-005
2	1	0	1	0	1,932769951174123E+001	3,8634923E-001	3,8641194E-001	7,601825299638298E-002	1,000000000000000E+000	7,3527603E-004	41	2,9374360E-005
2	1	0	1	0	1,937769951047812E+001	3,8734868E-001	3,8739932E-001	7,621494897089387E-002	1,000000000000000E+000	7,3908287E-004	41	2,9525620E-005
2	1	0	1	0	1,942759950921754E+001	3,8834909E-001	3,8841143E-001	7,641408002543026E-002	1,000000000000000E+000	7,4289198E-004	41	2,9680103E-005
2	1	0	1	0	1,947749950795696E+001	3,8934767E-001	3,8941947E-001	7,661040118654040E-002	1,000000000000000E+000	7,4671098E-004	41	2,9833582E-005
2	1	0	1	0	1,952749950669386E+001	3,9034718E-001	3,9041424E-001	7,680586212383655E-002	1,000000000000000E+000	7,5054739E-004	41	2,9986102E-005
2	1	0	1	0	1,957749950543075E+001	3,9134663E-001	3,9138803E-001	7,700109311069059E-002	1,000000000000000E+000	7,5439364E-004	41	3,0137306E-005
2	1	0	1	0	1,962749950416764E+001	3,9234614E-001	3,9241952E-001	7,719813203611531E-002	1,000000000000000E+000	7,5824972E-004	41	3,0294053E-005
2	1	0	1	0	1,967749950290454E+001	3,9334559E-001	3,9340132E-001	7,739409181737800E-002	1,000000000000000E+000	7,6211558E-004	41	3,0446938E-005
2	1	0	1	0	1,972749950164143E+001	3,9434507E-001	3,9440209E-001	7,759114525591360E-002	1,000000000000000E+000	7,6599122E-004	41	3,0602110E-005
2	1	0	1	0	1,977749950037833E+001	3,9534459E-001	3,9540833E-001	7,778760980538757E-002	1,000000000000000E+000	7,6987676E-004	41	3,0757870E-005
2	1	0	1	0	1,982739949911775E+001	3,9634588E-001	3,9641488E-001	7,798489429511757E-002	1,000000000000000E+000	7,7376433E-004	41	3,0914372E-005
2	1	0	1	0	1,987729949785717E+001	3,9734358E-001	3,9739767E-001	7,818341080133839E-002	1,000000000000000E+000	7,7766180E-004	41	3,1069903E-005
2	1	0	1	0	1,992729949659406E+001	3,9834306E-001	3,9841288E-001	7,837957693953745E-002	1,000000000000000E+000	7,8157691E-004	41	3,1227431E-005
2	1	0	1	0	1,997729949533095E+001	3,9934251E-001	3,9941081E-001	7,857532255110078E-002	1,000000000000000E+000	7,8550179E-004	41	3,1383832E-005
2	1	0	1	0	2,002729949406785E+001	4,0034202E-001	4,0042147E-001	7,877119435687296E-002	1,000000000000000E+000	7,8943645E-004	41	3,1541676E-005
2	1	0	1	0	2,007729949280474E+001	4,0134150E-001	4,0142056E-001	7,896932433531823E-002	1,000000000000000E+000	7,9338101E-004	41	3,1699910E-005
2	1	0	1	0	2,012729949154163E+001	4,0234101E-001	4,0241891E-001	7,916442521295930E-002	1,000000000000000E+000	7,9733541E-004	41	3,1857260E-005
2	1	0	1	0	2,017719949028105E+001	4,0333873E-001	4,0341666E-001	7,936215424177329E-002	1,000000000000000E+000	8,0129172E-004	41	3,2016014E-005
2	1	0	1	0	2,022709948902047E+001	4,0433994E-001	4,0440452E-001	7,955862337688879E-002	1,000000000000000E+000	8,0525782E-004	41	3,2173866E-005
2	1	0	1	0	2,027709948775737E+001	4,0533945E-001	4,0541962E-001	7,975530399319997E-002	1,000000000000000E+000	8,0924173E-004	41	3,2334367E-005
2	1	0	1	0	2,032709948649426E+001	4,0633893E-001	4,0641934E-001	7,995145889516508E-002	1,000000000000000E+000	8,1323541E-004	41	3,2493819E-005
2	1	0	1	0	2,037709948523116E+001	4,0733844E-001	4,0740478E-001	8,014904030736669E-002	1,000000000000000E+000	8,1723899E-004	41	3,2653101E-005
2	1	0	1	0	2,042709948396805E+001	4,0833792E-001	4,0840790E-001	8,034619811439414E-002	1,000000000000000E+000	8,2125241E-004	41	3,2814023E-005
2	1	0	1	0	2,047709948270494E+001	4,0933737E-001	4,0941790E-001	8,054418886011405E-002	1,000000000000000E+000	8,2527573E-004	41	3,2976233E-005
2	1	0	1	0	2,052709948144184E+001	4,1033688E-001	4,1042289E-001	8,073932579201148E-002	1,000000000000000E+000	8,2930882E-004	41	3,3137268E-005
2	1	0	1	0	2,057699948018126E+001	4,1133550E-001	4,1143325E-001	8,093657198326643E-002	1,000000000000000E+000	8,3334371E-004	41	3,3299995E-005
2	1	0	1	0	2,062689947892068E+001	4,1233584E-001	4,1241369E-001	8,112960923635559E-002	1,000000000000000E+000	8,3738827E-004	41	3,3458960E-005
2	1	0	1	0	2,067689947765757E+001	4,1333532E-001	4,1339344E-001	8,132646036230828E-002	1,000000000000000E+000	8,4145070E-004	41	3,3619825E-005
2	1	0	1	0	2,072689947639446E+001	4,1433477E-001	4,1442388E-001	8,152361745359715E-002	1,000000000000000E+000	8,4552303E-004	41	3,3785334E-005
2	1	0	1	0	2,077689947513136E+001	4,1533428E-001	4,1543436E-001	8,172009072990877E-002	1,000000000000000E+000	8,4960519E-004	41	3,3949334E-005
2	1	0	1	0	2,082689947386825E+001	4,1633376E-001	4,1642240E-001	8,191638668412682E-002	1,000000000000000E+000	8,5369713E-004	41	3,4111818E-005
2	1	0	1	0	2,087689947260515E+001	4,1733322E-001	4,1742906E-001	8,211501668793768E-002	1,000000000000000E+000	8,5779896E-004	41	3,4277193E-005
2	1	0	1	0	2,092689947134204E+001	4,1833276E-001	4,1842109E-001	8,231210596514504E-002	1,000000000000000E+000	8,6191070E-004	41	3,4441120E-005
2	1	0	1	0	2,097679947008146E+001	4,1933271E-001	4,1941491E-001	8,250785405148231E-002	1,000000000000000E+000	8,6602400E-004	41	3,4605026E-005
2	1	0	1	0	2,102669946882088E+001	4,2033172E-001	4,2041558E-001	8,270527644048409E-002	1,000000000000000E+000	8,7014708E-004	41	3,4770586E-005
2	1	0	1	0	2,107669946755777E+001	4,2133120E-001	4,2141631E-001	8,290080828764645E-002	1,000000000000000E+000	8,7428826E-004	41	3,4935754E-005
2	1	0	1	0	2,112669946629467E+001	4,2233065E-001	4,2241931E-001	8,309903752955562E-002	1,000000000000000E+000	8,7843928E-004	41	3,5102639E-005
2	1	0	1	0	2,117669946503156E+001	4,2333019E-001	4,2342263E-001	8,329677354130482E-002	1,000000000000000E+000	8,8260020E-004	41	3,5269739E-005
2	1	0	1	0	2,122669946376845E+001	4,2432964E-001	4,2441869E-001	8,349321288470590E-002	1,000000000000000E+000	8,8677101E-004	41	3,5436078E-005
2	1	0	1	0	2,127669946250535E+001	4,2532915E-001	4,2543152E-001	8,368824584478618E-002	1,000000000000000E+000	8,9095155E-004	41	3,5603618E-005
2	1	0	1	0	2,132669946124224E+001	4,2632863E-001	4,2641887E-001	8,388519200013483E-002	1,000000000000000E+000	8,9514191E-004	41	3,5770230E-005
2	1	0	1	0	2,137659945998166E+001	4,2732948E-001	4,2741805E-001	8,408449517251287E-002	1,000000000000000E+000	8,9933380E-004	41	3,5939232E-005
2	1	0	1	0	2,142649945872108E+001	4,2832759E-001	4,2841774E-001	8,427874944000346E-002	1,000000000000000E+000	9,0353552E-004	41	3,6106510E-005
2	1	0	1	0	2,147649945745798E+001	4,2932710E-001	4,2940855E-001	8,447453438269875E-002	1,000000000000000E+000	9,0775534E-004	41	3,6274087E-005
2	1	0	1	0	2,152649945619487E+001	4,3032658E-001	4,3039313E-001	8,467151211678164E-002	1,000000000000000E+000	9,1198506E-004	41	3,6442038E-005
2	1	0	1	0	2,157649945493176E+001	4,3132609E-001	4,3140087E-001	8,486743987089487E-002	1,000000000000000E+000	9,1622456E-004	41	3,6611887E-005
2	1	0	1	0	2,162649945366866E+001	4,3232554E-001	4,3239504E-001	8,505958365276461E-002	1,000000000000000E+000	9,2047377E-004	41	3,6779344E-005
2	1	0	1	0	2,167649945240555E+001	4,3332502E-001	4,3338323E-001	8,525511628465275E-002	1,000000000000000E+000	9,2473271E-004	41	3,6948139E-005
2	1	0	1	0	2,172649945114244E+001	4,3432453E-001	4,3440628E-001	8,545224549662755E-002	1,000000000000000E+000	9,2900143E-004	41	3,7120994E-005
2	1	0	1	0	2,177629944988439E+001	4,3532401E-001	4,3541864E-001	8,564883675457580E-002	1,000000000000000E+000	9,3326287E-004	41	3,7293099E-005
2	1	0	1	0	2,182629944862128E+001	4,3632352E-001	4,3640262E-001	8,584439212939277E-002	1,000000000000000E+000	9,3755126E-004	41	3,7462716E-005
2	1	0	1	0	2,187629944735818E+001	4,3732300E-001	4,3738994E-001	8,604292369758104E-002	1,000000000000000E+000	9,4184949E-004	41	3,7634309E-005
2	1	0	1	0	2,192629944609507E+001	4,3832245E-001	4,3839967E-001	8,623871866924082E-002	1,000000000000000E+000	9,4615755E-004	41	3,7807025E-005
2	1	0	1	0	2,197629944483197E+001	4,3932196E-001	4,3940139E-001	8,643602491873847E-002	1,000000000000000E+000	9,5047551E-004	41	3,7980109E-005
2	1	0	1	0	2,202629944356886E+001	4,4032145E-001	4,4039154E-001	8,663278843138236E-002	1,000000000000000E+000	9,5480325E-004	41	3,8152346E-005
2	1	0	1	0	2,207629944230575E+001	4,4132096E-001	4,4139540E-001	8,682856563030261E-002	1,000000000000000E+000	9,5914083E-004	41	3,8325728E-005
2	1	0	1	0	2,212619944104517E+001	4,4231912E-001	4,4238663E-001	8,702647066439528E-002	1,000000000000000E+000	9,6347951E-004	41	3,8499347E-005
2	1	0	1	0	2,217609943978459E+001	4,4331989E-001	4,4339988E-001	8,722362937233252E-002	1,000000000000000E+000	9,6782815E-004	41	3,8674945E-005
2	1	0	1	0	2,222609943852149E+001	4,4431940E-001	4,4439718E-001	8,741818065755047E-002	1,000000000000000E+000	9,7219524E-004	41	3,8848393E-005
2	1	0	1	0	2,227609943725838E+001	4,4531885E-001	4,4539621E-001	8,761489499981190E-002	1,000000000000000E+000	9,7657216E-004	41	3,9023344E-005
2	1	0	0	0	2,230179943660914E+001	4,4586873E-001	4,4594398E-001	8,772607892751694E-002	1,000000000000000E+000	9,7882468E-004	41	3,9120918E-005