EC-Lab ASCII FILE
Nb header lines : 60                          

Chronoamperometry / Chronocoulometry

Run on channel : 1 (SN 5836)
User : 
Electrode connection : standard
Ewe ctrl range : min = -10.00 V, max = 10.00 V
Ewe,I filtering : <None>
Safety Limits :
	Do not start on E overload
Channel : Grounded
Acquisition started on : 05/05/2022 15:55:02
Saved on :
	File : multiple_techniques_dataset_01_06_CA_C01.mpr
	Directory : C:\Users\Spectro Inlets\Desktop\Zilien Data Dir\multiple_techniques_dataset\
	Host : 192.168.1.105
Device : SP-200 (SN 0763)
Address : USB
EC-Lab for windows v11.27 (software)
Internet server v11.25 (firmware)
Command interpretor v11.27 (firmware)
Electrode material : 
Initial state : 
Electrolyte : 
Comments : 
Cable : standard
Electrode surface area : 0.001 cm²
Characteristic mass : 0.001 g
Equivalent Weight : 0.000 g/eq.
Density : 0.000 g/cm3
Cycle Definition : Charge/Discharge alternance
Ei (V)              0.050               
vs.                 Ref                 
ti (h:m:s)          0:00:10.0000        
Imax                pass                
unit Imax           mA                  
Imin                pass                
unit Imin           mA                  
dQM                 0.000               
unit dQM            mA.h                
record              I                   
dI                  5.000               
unit dI             µA                  
dQ                  0.000               
unit dQ             mA.h                
dt (s)              1.0000              
dta (s)             0.1000              
E range min (V)     -10.000             
E range max (V)     10.000              
I Range             100 µA              
I Range min         Unset               
I Range max         Unset               
I Range init        Unset               
Bandwidth           1                   
goto Ns'            0                   
nc cycles           0                   

mode	ox/red	error	control changes	Ns changes	counter inc.	Ns	time/s	control/V	Ewe/V	I/mA	dQ/C	(Q-Qo)/C	I Range	Rcmp/Ohm	Q charge/discharge/mA.h	half cycle	Energy charge/W.h	Energy discharge/W.h	Capacitance charge/µF	Capacitance discharge/µF	Q discharge/mA.h	Q charge/mA.h	Capacity/mA.h	Efficiency/%	cycle number	P/W	
2	0	0	0	0	0	0	6.296813861069677E+002	5.0035376E-002	1.9815466E-001	-2.5009227E-001	0.0000000E+000	0.0000000E+000	41	0.0000000E+000	0.000000000000000E+000	0	0.000000000000000E+000	0.000000000000000E+000	0.000000000000000E+000	0.000000000000000E+000	0.000000000000000E+000	0.000000000000000E+000	0.000000000000000E+000	0.0000000E+000	0.000000000000000E+000	-4.9556947E-005
2	0	1	0	0	0	0	6.297981861040171E+002	5.0035376E-002	4.5285493E-002	-2.3885289E-001	-2.9207877E-005	-2.9207877E-005	41	0.0000000E+000	-8.113299069615701E-006	0	0.000000000000000E+000	-3.674147493229531E-010	0.000000000000000E+000	0.000000000000000E+000	8.113299069615701E-006	0.000000000000000E+000	8.113299069615701E-006	0.0000000E+000	0.000000000000000E+000	-1.0816570E-005
2	0	0	0	0	0	0	6.297983861040120E+002	5.0035376E-002	4.5346618E-002	-2.3101693E-001	-2.9254079E-005	-2.9254079E-005	41	0.0000000E+000	-8.126133050407387E-006	0	0.000000000000000E+000	-3.679967269434658E-010	0.000000000000000E+000	4.785977590961726E+005	8.126133050407387E-006	0.000000000000000E+000	8.126133050407387E-006	0.0000000E+000	0.000000000000000E+000	-1.0475836E-005
2	0	0	0	0	0	0	6.297985861040070E+002	5.0035376E-002	4.5128856E-002	-2.2328787E-001	-2.9298737E-005	-2.9298737E-005	41	0.0000000E+000	-8.138538052864735E-006	0	0.000000000000000E+000	-3.685565505112353E-010	0.000000000000000E+000	1.870482989088104E+005	8.138538052864735E-006	0.000000000000000E+000	8.138538052864735E-006	0.0000000E+000	0.000000000000000E+000	-1.0076726E-005
2	0	0	0	0	0	0	6.297987861040019E+002	5.0035376E-002	4.6171822E-002	-2.1592143E-001	-2.9341922E-005	-2.9341922E-005	41	0.0000000E+000	-8.150533782706285E-006	0	0.000000000000000E+000	-3.691104152100870E-010	0.000000000000000E+000	3.310501807052311E+004	8.150533782706285E-006	0.000000000000000E+000	8.150533782706285E-006	0.0000000E+000	0.000000000000000E+000	-9.9694862E-006
2	0	0	0	0	0	0	6.297989861039969E+002	5.0035376E-002	4.5713376E-002	-2.0840003E-001	-2.9383602E-005	-2.9383602E-005	41	0.0000000E+000	-8.162111650259854E-006	0	0.000000000000000E+000	-3.696396786257805E-010	0.000000000000000E+000	6.867202906117500E+004	8.162111650259854E-006	0.000000000000000E+000	8.162111650259854E-006	0.0000000E+000	0.000000000000000E+000	-9.5266687E-006
2	0	0	0	0	0	0	6.297991861039918E+002	5.0035376E-002	4.5075368E-002	-2.0079651E-001	-2.9423760E-005	-2.9423760E-005	41	0.0000000E+000	-8.173266602777099E-006	0	0.000000000000000E+000	-3.701424922170368E-010	0.000000000000000E+000	1.400297911726576E+005	8.173266602777099E-006	0.000000000000000E+000	8.173266602777099E-006	0.0000000E+000	0.000000000000000E+000	-9.0509766E-006
2	0	0	0	0	0	0	6.297993861039868E+002	5.0035376E-002	4.5155596E-002	-1.9311862E-001	-2.9462384E-005	-2.9462384E-005	41	0.0000000E+000	-8.183995608609015E-006	0	0.000000000000000E+000	-3.706269668697360E-010	0.000000000000000E+000	2.268131731668889E+005	8.183995608609015E-006	0.000000000000000E+000	8.183995608609015E-006	0.0000000E+000	0.000000000000000E+000	-8.7203862E-006
2	0	0	0	0	0	0	6.297995861039817E+002	5.0035376E-002	4.4823222E-002	-1.8526891E-001	-2.9499439E-005	-2.9499439E-005	41	0.0000000E+000	-8.194288562258913E-006	0	0.000000000000000E+000	-3.710883302148039E-010	0.000000000000000E+000	6.381412936175357E+004	8.194288562258913E-006	0.000000000000000E+000	8.194288562258913E-006	0.0000000E+000	0.000000000000000E+000	-8.3043496E-006
2	0	0	0	0	0	0	6.297997861039767E+002	5.0035376E-002	4.5587301E-002	-1.7744708E-001	-2.9534927E-005	-2.9534927E-005	41	0.0000000E+000	-8.204146474276462E-006	0	0.000000000000000E+000	-3.715377258196860E-010	0.000000000000000E+000	9.785994963572010E+004	8.204146474276462E-006	0.000000000000000E+000	8.204146474276462E-006	0.0000000E+000	0.000000000000000E+000	-8.0893333E-006
2	0	0	0	0	0	0	6.297999861039716E+002	5.0035376E-002	4.5835629E-002	-1.6999933E-001	-2.9568928E-005	-2.9568928E-005	41	0.0000000E+000	-8.213591071479539E-006	0	0.000000000000000E+000	-3.719706248741378E-010	0.000000000000000E+000	5.374839942043730E+004	8.213591071479539E-006	0.000000000000000E+000	8.213591071479539E-006	0.0000000E+000	0.000000000000000E+000	-7.7920267E-006
2	0	0	0	0	0	0	6.298001861039666E+002	5.0035376E-002	4.5678992E-002	-1.6232447E-001	-2.9601393E-005	-2.9601393E-005	41	0.0000000E+000	-8.222609216722452E-006	0	0.000000000000000E+000	-3.723825646569599E-010	0.000000000000000E+000	7.522615452728418E+004	8.222609216722452E-006	0.000000000000000E+000	8.222609216722452E-006	0.0000000E+000	0.000000000000000E+000	-7.4148184E-006
2	0	0	0	0	0	0	6.298003861039615E+002	5.0035376E-002	4.4639844E-002	-1.5455416E-001	-2.9632303E-005	-2.9632303E-005	41	0.0000000E+000	-8.231195351982024E-006	0	0.000000000000000E+000	-3.727658483993513E-010	0.000000000000000E+000	4.589539762769380E+004	8.231195351982024E-006	0.000000000000000E+000	8.231195351982024E-006	0.0000000E+000	0.000000000000000E+000	-6.8992736E-006
2	0	0	0	0	0	0	6.298005861039564E+002	5.0035376E-002	4.5121212E-002	-1.4711100E-001	-2.9661725E-005	-2.9661725E-005	41	0.0000000E+000	-8.239368172427123E-006	0	0.000000000000000E+000	-3.731346159596849E-010	0.000000000000000E+000	1.805541801188803E+005	8.239368172427123E-006	0.000000000000000E+000	8.239368172427123E-006	0.0000000E+000	0.000000000000000E+000	-6.6378266E-006
2	0	0	0	0	0	0	6.298007861039514E+002	5.0035376E-002	4.4578720E-002	-1.3943689E-001	-2.9689612E-005	-2.9689612E-005	41	0.0000000E+000	-8.247114540912056E-006	0	0.000000000000000E+000	-3.734799391504942E-010	0.000000000000000E+000	4.200726653545564E+004	8.247114540912056E-006	0.000000000000000E+000	8.247114540912056E-006	0.0000000E+000	0.000000000000000E+000	-6.2159179E-006
2	0	0	0	0	0	0	6.298009861039463E+002	5.0035376E-002	4.4628385E-002	-1.3190250E-001	-2.9715993E-005	-2.9715993E-005	41	0.0000000E+000	-8.254442541834174E-006	0	0.000000000000000E+000	-3.738069760002568E-010	0.000000000000000E+000	4.522241028099506E+004	8.254442541834174E-006	0.000000000000000E+000	8.254442541834174E-006	0.0000000E+000	0.000000000000000E+000	-5.8865958E-006
2	0	0	0	0	0	0	6.298011861039413E+002	5.0035376E-002	4.4597819E-002	-1.2425207E-001	-2.9740844E-005	-2.9740844E-005	41	0.0000000E+000	-8.261345606620631E-006	0	0.000000000000000E+000	-3.741148376372377E-010	0.000000000000000E+000	4.324848355496598E+004	8.261345606620631E-006	0.000000000000000E+000	8.261345606620631E-006	0.0000000E+000	0.000000000000000E+000	-5.5413711E-006
2	0	0	0	0	0	0	6.298013861039362E+002	5.0035376E-002	4.4712432E-002	-1.1675698E-001	-2.9764195E-005	-2.9764195E-005	41	0.0000000E+000	-8.267831819668774E-006	0	0.000000000000000E+000	-3.744048519953316E-010	0.000000000000000E+000	5.193892697600435E+004	8.267831819668774E-006	0.000000000000000E+000	8.267831819668774E-006	0.0000000E+000	0.000000000000000E+000	-5.2204887E-006
2	0	0	0	0	0	0	6.298015861039312E+002	5.0035376E-002	4.4452649E-002	-1.0931267E-001	-2.9786057E-005	-2.9786057E-005	41	0.0000000E+000	-8.273904717902446E-006	0	0.000000000000000E+000	-3.746748084065565E-010	0.000000000000000E+000	3.576424659075660E+004	8.273904717902446E-006	0.000000000000000E+000	8.273904717902446E-006	0.0000000E+000	0.000000000000000E+000	-4.8592378E-006
2	0	0	0	0	0	0	6.298017861039261E+002	5.0035376E-002	4.3971278E-002	-1.0204548E-001	-2.9806466E-005	-2.9806466E-005	41	0.0000000E+000	-8.279573901543497E-006	0	0.000000000000000E+000	-3.749240896551855E-010	0.000000000000000E+000	2.268004689776547E+004	8.279573901543497E-006	0.000000000000000E+000	8.279573901543497E-006	0.0000000E+000	0.000000000000000E+000	-4.4870699E-006
2	0	0	0	0	0	0	6.298019861039211E+002	5.0035376E-002	4.4108808E-002	-9.4669119E-002	-2.9825400E-005	-2.9825400E-005	41	0.0000000E+000	-8.284833307293917E-006	0	0.000000000000000E+000	-3.751560757738384E-010	0.000000000000000E+000	2.534696839215216E+004	8.284833307293917E-006	0.000000000000000E+000	8.284833307293917E-006	0.0000000E+000	0.000000000000000E+000	-4.1757421E-006
2	0	0	0	0	0	0	6.298021861039160E+002	5.0035376E-002	4.4460285E-002	-8.7357648E-002	-2.9842871E-005	-2.9842871E-005	41	0.0000000E+000	-8.289686472077543E-006	0	0.000000000000000E+000	-3.753718488654786E-010	0.000000000000000E+000	3.616407360957497E+004	8.289686472077543E-006	0.000000000000000E+000	8.289686472077543E-006	0.0000000E+000	0.000000000000000E+000	-3.8839457E-006
2	0	0	0	0	0	0	6.298023861039110E+002	5.0035376E-002	4.4208139E-002	-8.0288567E-002	-2.9858929E-005	-2.9858929E-005	41	0.0000000E+000	-8.294147038314906E-006	0	0.000000000000000E+000	-3.755690421985266E-010	0.000000000000000E+000	2.771505986341632E+004	8.294147038314906E-006	0.000000000000000E+000	8.294147038314906E-006	0.0000000E+000	0.000000000000000E+000	-3.5494081E-006
2	0	0	0	0	0	0	6.298025861039059E+002	5.0035376E-002	4.3619800E-002	-7.2608352E-002	-2.9873452E-005	-2.9873452E-005	41	0.0000000E+000	-8.298181152592102E-006	0	0.000000000000000E+000	-3.757450094579233E-010	0.000000000000000E+000	1.793455105998018E+004	8.298181152592102E-006	0.000000000000000E+000	8.298181152592102E-006	0.0000000E+000	0.000000000000000E+000	-3.1671618E-006
2	0	0	0	0	0	0	6.298027861039009E+002	5.0035376E-002	4.3982737E-002	-6.5295741E-002	-2.9886511E-005	-2.9886511E-005	41	0.0000000E+000	-8.301808520627674E-006	0	0.000000000000000E+000	-3.759045510313865E-010	0.000000000000000E+000	2.294098219960124E+004	8.301808520627674E-006	0.000000000000000E+000	8.301808520627674E-006	0.0000000E+000	0.000000000000000E+000	-2.8718855E-006
2	0	0	0	0	0	0	6.298029861038958E+002	5.0035376E-002	4.4494674E-002	-5.8338884E-002	-2.9898178E-005	-2.9898178E-005	41	0.0000000E+000	-8.305049353414992E-006	0	0.000000000000000E+000	-3.760487508284819E-010	0.000000000000000E+000	3.780657495162731E+004	8.305049353414992E-006	0.000000000000000E+000	8.305049353414992E-006	0.0000000E+000	0.000000000000000E+000	-2.5957695E-006
2	0	0	0	0	0	0	6.298031861038908E+002	5.0035376E-002	4.4357136E-002	-5.1217508E-002	-2.9908422E-005	-2.9908422E-005	41	0.0000000E+000	-8.307895061281872E-006	0	0.000000000000000E+000	-3.761749782790418E-010	0.000000000000000E+000	3.221650116784341E+004	8.307895061281872E-006	0.000000000000000E+000	8.307895061281872E-006	0.0000000E+000	0.000000000000000E+000	-2.2718618E-006
2	0	0	0	0	0	0	6.298033861038857E+002	5.0035376E-002	4.3971278E-002	-4.3980859E-002	-2.9917219E-005	-2.9917219E-005	41	0.0000000E+000	-8.310338570380634E-006	0	0.000000000000000E+000	-3.762824224963652E-010	0.000000000000000E+000	2.276431984952818E+004	8.310338570380634E-006	0.000000000000000E+000	8.310338570380634E-006	0.0000000E+000	0.000000000000000E+000	-1.9338945E-006
2	0	0	0	0	0	0	6.298035861038807E+002	5.0035376E-002	4.3486085E-002	-3.6906432E-002	-2.9924598E-005	-2.9924598E-005	41	0.0000000E+000	-8.312388470383465E-006	0	0.000000000000000E+000	-3.763715646216973E-010	0.000000000000000E+000	1.663024324245640E+004	8.312388470383465E-006	0.000000000000000E+000	8.312388470383465E-006	0.0000000E+000	0.000000000000000E+000	-1.6049163E-006
2	0	0	0	0	0	0	6.298037861038756E+002	5.0035376E-002	4.3692388E-002	-3.0047685E-002	-2.9930608E-005	-2.9930608E-005	41	0.0000000E+000	-8.314057898436053E-006	0	0.000000000000000E+000	-3.764445059193089E-010	0.000000000000000E+000	1.878758721802028E+004	8.314057898436053E-006	0.000000000000000E+000	8.314057898436053E-006	0.0000000E+000	0.000000000000000E+000	-1.3128551E-006
2	0	0	0	0	0	0	6.298039861038706E+002	5.0035376E-002	4.3673284E-002	-2.2837369E-002	-2.9935176E-005	-2.9935176E-005	41	0.0000000E+000	-8.315326643545026E-006	0	0.000000000000000E+000	-3.764999161852231E-010	0.000000000000000E+000	1.856780351328003E+004	8.315326643545026E-006	0.000000000000000E+000	8.315326643545026E-006	0.0000000E+000	0.000000000000000E+000	-9.9738293E-007
2	0	0	0	0	0	0	6.298041861038655E+002	5.0035376E-002	4.4120271E-002	-1.5790813E-002	-2.9938334E-005	-2.9938334E-005	41	0.0000000E+000	-8.316203800657402E-006	0	0.000000000000000E+000	-3.765386165945192E-010	0.000000000000000E+000	2.569323614442496E+004	8.316203800657402E-006	0.000000000000000E+000	8.316203800657402E-006	0.0000000E+000	0.000000000000000E+000	-6.9669494E-007
2	0	0	0	0	0	0	6.298043861038605E+002	5.0035376E-002	4.4196680E-002	-8.5583571E-003	-2.9940045E-005	-2.9940045E-005	41	0.0000000E+000	-8.316679264276496E-006	0	0.000000000000000E+000	-3.765596305080333E-010	0.000000000000000E+000	2.749787778183122E+004	8.316679264276496E-006	0.000000000000000E+000	8.316679264276496E-006	0.0000000E+000	0.000000000000000E+000	-3.7825097E-007
2	0	0	0	0	0	0	6.298045861038554E+002	5.0035376E-002	4.3680925E-002	-1.8259559E-003	-2.9940411E-005	-2.9940411E-005	41	0.0000000E+000	-8.316780824518193E-006	0	0.000000000000000E+000	-3.765640667533260E-010	0.000000000000000E+000	1.865948154868384E+004	8.316780824518193E-006	0.000000000000000E+000	8.316780824518193E-006	0.0000000E+000	0.000000000000000E+000	-7.9759445E-008
2	1	0	0	0	0	0	6.298047861038503E+002	5.0035376E-002	4.2641781E-002	5.1931175E-003	-2.9939372E-005	-2.9939372E-005	41	0.0000000E+000	2.885119303955573E-010	2	1.230266262985823E-014	0.000000000000000E+000	0.000000000000000E+000	0.000000000000000E+000	0.000000000000000E+000	2.885119303955573E-010	2.885119303955573E-010	0.0000000E+000	1.000000000000000E+000	2.2144378E-007
2	1	0	0	0	0	0	6.298049861038453E+002	5.0035376E-002	4.3528110E-002	1.2055686E-002	-2.9936962E-005	-2.9936962E-005	41	0.0000000E+000	9.580010858680491E-010	2	4.144426009173921E-014	0.000000000000000E+000	3.891112423401559E+000	0.000000000000000E+000	0.000000000000000E+000	9.580010858680491E-010	9.580010858680491E-010	0.0000000E+000	1.000000000000000E+000	5.2476122E-007
2	1	0	0	0	0	0	6.298051861038402E+002	5.0035376E-002	4.3551032E-002	1.9015592E-002	-2.9933159E-005	-2.9933159E-005	41	0.0000000E+000	2.014530764427036E-009	2	8.745721740345333E-014	0.000000000000000E+000	7.976143987503841E+000	0.000000000000000E+000	0.000000000000000E+000	2.014530764427036E-009	2.014530764427036E-009	0.0000000E+000	1.000000000000000E+000	8.2814864E-007
2	1	0	0	0	0	0	6.298053861038352E+002	5.0035376E-002	4.3955993E-002	2.5691500E-002	-2.9928020E-005	-2.9928020E-005	41	0.0000000E+000	3.441932171375839E-009	2	1.502000635231445E-013	0.000000000000000E+000	9.428432582819472E+000	0.000000000000000E+000	0.000000000000000E+000	3.441932171375839E-009	3.441932171375839E-009	0.0000000E+000	1.000000000000000E+000	1.1292954E-006
2	1	0	0	0	0	0	6.298055861038301E+002	5.0035376E-002	4.3807000E-002	3.2334581E-002	-2.9921554E-005	-2.9921554E-005	41	0.0000000E+000	5.238184207377372E-009	2	2.288884763237945E-013	0.000000000000000E+000	1.618362624525917E+001	0.000000000000000E+000	0.000000000000000E+000	5.238184207377372E-009	5.238184207377372E-009	0.0000000E+000	1.000000000000000E+000	1.4164810E-006
2	1	0	0	0	0	0	6.298057861038251E+002	5.0035376E-002	4.3004718E-002	3.9416637E-002	-2.9913670E-005	-2.9913670E-005	41	0.0000000E+000	7.428045339313044E-009	2	3.230628360563449E-013	0.000000000000000E+000	7.367947299204330E+001	0.000000000000000E+000	0.000000000000000E+000	7.428045339313044E-009	7.428045339313044E-009	0.0000000E+000	1.000000000000000E+000	1.6951013E-006
2	1	0	0	0	0	0	6.298059861038200E+002	5.0035376E-002	4.3100230E-002	4.6075746E-002	-2.9904455E-005	-2.9904455E-005	41	0.0000000E+000	9.987767649969142E-009	2	4.333874573948767E-013	0.000000000000000E+000	7.842956078747200E+001	0.000000000000000E+000	0.000000000000000E+000	9.987767649969142E-009	9.987767649969142E-009	0.0000000E+000	1.000000000000000E+000	1.9858753E-006
2	1	0	0	0	0	0	6.298061861038150E+002	5.0035376E-002	4.3126971E-002	5.2518804E-002	-2.9893950E-005	-2.9893950E-005	41	0.0000000E+000	1.290572981815785E-008	2	5.592303258287113E-013	0.000000000000000E+000	9.575774087851845E+001	0.000000000000000E+000	0.000000000000000E+000	1.290572981815785E-008	1.290572981815785E-008	0.0000000E+000	1.000000000000000E+000	2.2649770E-006
2	1	0	0	0	0	0	6.298063861038099E+002	5.0035376E-002	4.3875769E-002	5.8964532E-002	-2.9882158E-005	-2.9882158E-005	41	0.0000000E+000	1.618142656904278E-008	2	7.029540390662560E-013	0.000000000000000E+000	4.720723278545086E+001	0.000000000000000E+000	0.000000000000000E+000	1.618142656904278E-008	1.618142656904278E-008	0.0000000E+000	1.000000000000000E+000	2.5871141E-006
2	1	0	0	0	0	0	6.298065861038049E+002	5.0035376E-002	4.3749694E-002	6.5555319E-002	-2.9869047E-005	-2.9869047E-005	41	0.0000000E+000	1.982344757480867E-008	2	8.622913428129837E-013	0.000000000000000E+000	6.441339960003459E+001	0.000000000000000E+000	0.000000000000000E+000	1.982344757480867E-008	1.982344757480867E-008	0.0000000E+000	1.000000000000000E+000	2.8680251E-006
2	1	0	0	0	0	0	6.298067861037998E+002	5.0035376E-002	4.3188099E-002	7.2446898E-002	-2.9854558E-005	-2.9854558E-005	41	0.0000000E+000	2.384796163015387E-008	2	1.036102453529919E-012	0.000000000000000E+000	1.571479119644536E+002	0.000000000000000E+000	0.000000000000000E+000	2.384796163015387E-008	2.384796163015387E-008	0.0000000E+000	1.000000000000000E+000	3.1288437E-006
2	1	0	0	0	0	0	6.298069861037948E+002	5.0035376E-002	4.3207195E-002	7.9049133E-002	-2.9838748E-005	-2.9838748E-005	41	0.0000000E+000	2.823981049004942E-008	2	1.225861922119744E-012	0.000000000000000E+000	1.798035213668738E+002	0.000000000000000E+000	0.000000000000000E+000	2.823981049004942E-008	2.823981049004942E-008	0.0000000E+000	1.000000000000000E+000	3.4154912E-006
2	1	0	0	0	0	0	6.298071861037897E+002	5.0035376E-002	4.3531932E-002	8.5382253E-002	-2.9821671E-005	-2.9821671E-005	41	0.0000000E+000	3.298333063462994E-008	2	1.432356518194183E-012	0.000000000000000E+000	1.333931375759595E+002	0.000000000000000E+000	0.000000000000000E+000	3.298333063462994E-008	3.298333063462994E-008	0.0000000E+000	1.000000000000000E+000	3.7168545E-006
2	1	0	0	0	0	0	6.298073861037847E+002	5.0035376E-002	4.3642726E-002	9.1782555E-002	-2.9803316E-005	-2.9803316E-005	41	0.0000000E+000	3.808205898773490E-008	2	1.654878921614522E-012	0.000000000000000E+000	1.369660445021919E+002	0.000000000000000E+000	0.000000000000000E+000	3.808205898773490E-008	3.808205898773490E-008	0.0000000E+000	1.000000000000000E+000	4.0056407E-006
2	1	0	0	0	0	0	6.298075861037796E+002	5.0035376E-002	4.3742053E-002	9.7824045E-002	-2.9783751E-005	-2.9783751E-005	41	0.0000000E+000	4.351679510566284E-008	2	1.892605438071231E-012	0.000000000000000E+000	1.423834023681906E+002	0.000000000000000E+000	0.000000000000000E+000	4.351679510566284E-008	4.351679510566284E-008	0.0000000E+000	1.000000000000000E+000	4.2790248E-006
2	1	0	0	0	0	0	6.298077861037746E+002	5.0035376E-002	4.2828977E-002	1.0415640E-001	-2.9762919E-005	-2.9762919E-005	41	0.0000000E+000	4.930320250827575E-008	2	2.140431348255310E-012	0.000000000000000E+000	9.481595926616843E+002	0.000000000000000E+000	0.000000000000000E+000	4.930320250827575E-008	4.930320250827575E-008	0.0000000E+000	1.000000000000000E+000	4.4609124E-006
2	1	0	0	0	0	0	6.298079861037695E+002	5.0035376E-002	4.3295067E-002	1.1016736E-001	-2.9740886E-005	-2.9740886E-005	41	0.0000000E+000	5.542359657637286E-008	2	2.405414218298506E-012	0.000000000000000E+000	3.054176734952771E+002	0.000000000000000E+000	0.000000000000000E+000	5.542359657637286E-008	5.542359657637286E-008	0.0000000E+000	1.000000000000000E+000	4.7697031E-006
2	1	0	0	0	0	0	6.298081861037645E+002	5.0035376E-002	4.2416375E-002	1.1657071E-001	-2.9717570E-005	-2.9717570E-005	41	0.0000000E+000	6.190020940266550E-008	2	2.680128657512992E-012	0.000000000000000E+000	9.886188271604939E+002	0.000000000000000E+000	0.000000000000000E+000	6.190020940266550E-008	6.190020940266550E-008	0.0000000E+000	1.000000000000000E+000	4.9445071E-006
2	1	0	0	0	0	0	6.298083861037594E+002	5.0035376E-002	4.3352373E-002	1.2241600E-001	-2.9693088E-005	-2.9693088E-005	41	0.0000000E+000	6.870070339775522E-008	2	2.974946209393968E-012	0.000000000000000E+000	3.480515482141350E+002	0.000000000000000E+000	0.000000000000000E+000	6.870070339775522E-008	6.870070339775522E-008	0.0000000E+000	1.000000000000000E+000	5.3070239E-006
2	1	0	0	0	0	0	6.298085861037544E+002	5.0035376E-002	4.3860484E-002	1.2852238E-001	-2.9667384E-005	-2.9667384E-005	41	0.0000000E+000	7.584074208150740E-008	2	3.288111761232400E-012	0.000000000000000E+000	2.240305892606603E+002	0.000000000000000E+000	0.000000000000000E+000	7.584074208150740E-008	7.584074208150740E-008	0.0000000E+000	1.000000000000000E+000	5.6370536E-006
2	1	0	0	0	0	0	6.298087861037493E+002	5.0035376E-002	4.3165173E-002	1.3470510E-001	-2.9640443E-005	-2.9640443E-005	41	0.0000000E+000	8.332436765259452E-008	2	3.611143756531104E-012	0.000000000000000E+000	5.731223631554345E+002	0.000000000000000E+000	0.000000000000000E+000	8.332436765259452E-008	8.332436765259452E-008	0.0000000E+000	1.000000000000000E+000	5.8145688E-006
2	1	0	0	0	0	0	6.298089861037442E+002	5.0035376E-002	4.2809878E-002	1.4072482E-001	-2.9612298E-005	-2.9612298E-005	41	0.0000000E+000	9.114248516400222E-008	2	3.945836409824085E-012	0.000000000000000E+000	1.951934677160202E+003	0.000000000000000E+000	0.000000000000000E+000	9.114248516400222E-008	9.114248516400222E-008	0.0000000E+000	1.000000000000000E+000	6.0244124E-006
2	1	0	0	0	0	0	6.298091861037392E+002	5.0035376E-002	4.3050565E-002	1.4647965E-001	-2.9583001E-005	-2.9583001E-005	41	0.0000000E+000	9.928044164553285E-008	2	4.296180032879601E-012	0.000000000000000E+000	8.743247753617906E+002	0.000000000000000E+000	0.000000000000000E+000	9.928044164553285E-008	9.928044164553285E-008	0.0000000E+000	1.000000000000000E+000	6.3060315E-006
2	1	0	0	0	0	0	6.298093861037341E+002	5.0035376E-002	4.3142252E-002	1.5255778E-001	-2.9552490E-005	-2.9552490E-005	41	0.0000000E+000	1.077559217163871E-007	2	4.661831327123523E-012	0.000000000000000E+000	7.751134098843214E+002	0.000000000000000E+000	0.000000000000000E+000	1.077559217163871E-007	1.077559217163871E-007	0.0000000E+000	1.000000000000000E+000	6.5816857E-006
2	1	0	0	0	0	0	6.298095861037291E+002	5.0035376E-002	4.3726772E-002	1.5811487E-001	-2.9520867E-005	-2.9520867E-005	41	0.0000000E+000	1.165401247110112E-007	2	5.045936169285456E-012	0.000000000000000E+000	3.866801904506431E+002	0.000000000000000E+000	0.000000000000000E+000	1.165401247110112E-007	1.165401247110112E-007	0.0000000E+000	1.000000000000000E+000	6.9138528E-006
2	1	0	0	0	0	0	6.298097861037240E+002	5.0035376E-002	4.3218657E-002	1.6402391E-001	-2.9488063E-005	-2.9488063E-005	41	0.0000000E+000	1.256522510731066E-007	2	5.439750036480929E-012	0.000000000000000E+000	7.841338908342639E+002	0.000000000000000E+000	0.000000000000000E+000	1.256522510731066E-007	1.256522510731066E-007	0.0000000E+000	1.000000000000000E+000	7.0888932E-006
2	1	0	0	0	0	0	6.298099861037190E+002	5.0035376E-002	4.3275964E-002	1.6970389E-001	-2.9454122E-005	-2.9454122E-005	41	0.0000000E+000	1.350801742066524E-007	2	5.847752494030889E-012	0.000000000000000E+000	7.667963449485119E+002	0.000000000000000E+000	0.000000000000000E+000	1.350801742066524E-007	1.350801742066524E-007	0.0000000E+000	1.000000000000000E+000	7.3440992E-006
2	1	0	0	0	0	0	6.298101861037139E+002	5.0035376E-002	4.3165173E-002	1.7547627E-001	-2.9419027E-005	-2.9419027E-005	41	0.0000000E+000	1.448289468599888E-007	2	6.268559955869634E-012	0.000000000000000E+000	9.961636747581734E+002	0.000000000000000E+000	0.000000000000000E+000	1.448289468599888E-007	1.448289468599888E-007	0.0000000E+000	1.000000000000000E+000	7.5744633E-006
2	1	0	0	0	0	0	6.298103861037089E+002	5.0035376E-002	4.3260686E-002	1.8114482E-001	-2.9382798E-005	-2.9382798E-005	41	0.0000000E+000	1.548925057351062E-007	2	6.703916417410222E-012	0.000000000000000E+000	9.009673127362468E+002	0.000000000000000E+000	0.000000000000000E+000	1.548925057351062E-007	1.548925057351062E-007	0.0000000E+000	1.000000000000000E+000	7.8364492E-006
2	1	0	0	0	0	0	6.298105861037038E+002	5.0035376E-002	4.3233939E-002	1.8676068E-001	-2.9345445E-005	-2.9345445E-005	41	0.0000000E+000	1.652683244578330E-007	2	7.152503926113308E-012	0.000000000000000E+000	1.004743205273784E+003	0.000000000000000E+000	0.000000000000000E+000	1.652683244578330E-007	1.652683244578330E-007	0.0000000E+000	1.000000000000000E+000	8.0743994E-006
2	1	0	0	0	0	0	6.298107861036988E+002	5.0035376E-002	4.3050565E-002	1.9225784E-001	-2.9306993E-005	-2.9306993E-005	41	0.0000000E+000	1.759493291804883E-007	2	7.612327212327826E-012	0.000000000000000E+000	1.549518265239406E+003	0.000000000000000E+000	0.000000000000000E+000	1.759493291804883E-007	1.759493291804883E-007	0.0000000E+000	1.000000000000000E+000	8.2768083E-006
2	1	0	0	0	0	0	6.298109861036937E+002	5.0035376E-002	4.3432601E-002	1.9758436E-001	-2.9267476E-005	-2.9267476E-005	41	0.0000000E+000	1.869264249560529E-007	2	8.089091031049824E-012	0.000000000000000E+000	8.509338830882223E+002	0.000000000000000E+000	0.000000000000000E+000	1.869264249560529E-007	1.869264249560529E-007	0.0000000E+000	1.000000000000000E+000	8.5816027E-006
2	1	0	0	0	0	0	6.298111861036887E+002	5.0035376E-002	4.2592116E-002	2.0321473E-001	-2.9226834E-005	-2.9226834E-005	41	0.0000000E+000	1.982157805792267E-007	2	8.569928571933253E-012	0.000000000000000E+000	1.436763549401818E+004	0.000000000000000E+000	0.000000000000000E+000	1.982157805792267E-007	1.982157805792267E-007	0.0000000E+000	1.000000000000000E+000	8.6553455E-006
2	1	0	0	0	0	0	6.298113861036836E+002	5.0035376E-002	4.2183336E-002	2.0849164E-001	-2.9185136E-005	-2.9185136E-005	41	0.0000000E+000	2.097987008811379E-007	2	9.058534789390059E-012	0.000000000000000E+000	1.647470610835500E+003	0.000000000000000E+000	0.000000000000000E+000	2.097987008811379E-007	2.097987008811379E-007	0.0000000E+000	1.000000000000000E+000	8.7948729E-006
2	1	0	0	0	0	0	6.298115861036786E+002	5.0035376E-002	4.2355251E-002	2.1357730E-001	-2.9142420E-005	-2.9142420E-005	41	0.0000000E+000	2.216640698154352E-007	2	9.561095463674463E-012	0.000000000000000E+000	2.785009222843396E+003	0.000000000000000E+000	0.000000000000000E+000	2.216640698154352E-007	2.216640698154352E-007	0.0000000E+000	1.000000000000000E+000	9.0461199E-006
2	1	0	0	0	0	0	6.298119861036685E+002	5.0035376E-002	4.3180455E-002	2.2374175E-001	-2.9053970E-005	-2.9053970E-005	41	0.0000000E+000	2.462335639089961E-007	2	1.062201738601914E-011	0.000000000000000E+000	1.645600235392357E+003	0.000000000000000E+000	0.000000000000000E+000	2.462335639089961E-007	2.462335639089961E-007	0.0000000E+000	1.000000000000000E+000	9.6612703E-006
2	1	0	0	0	0	0	6.298121861036634E+002	5.0035376E-002	4.2710546E-002	2.2884384E-001	-2.9008201E-005	-2.9008201E-005	41	0.0000000E+000	2.589472892901140E-007	2	1.116502754387866E-011	0.000000000000000E+000	1.355643757787531E+004	0.000000000000000E+000	0.000000000000000E+000	2.589472892901140E-007	2.589472892901140E-007	0.0000000E+000	1.000000000000000E+000	9.7740458E-006
2	1	0	0	0	0	0	6.298123861036584E+002	5.0035376E-002	4.2637959E-002	2.3395543E-001	-2.8961411E-005	-2.8961411E-005	41	0.0000000E+000	2.719444738532821E-007	2	1.171920096799266E-011	0.000000000000000E+000	2.561387327911785E+005	0.000000000000000E+000	0.000000000000000E+000	2.719444738532821E-007	2.719444738532821E-007	0.0000000E+000	1.000000000000000E+000	9.9753815E-006
2	1	0	0	0	0	0	6.298127861036483E+002	5.0035376E-002	4.3272145E-002	2.4338508E-001	-2.8865023E-005	-2.8865023E-005	41	0.0000000E+000	2.987189873238094E-007	2	1.287779159967007E-011	0.000000000000000E+000	1.705980446311432E+003	0.000000000000000E+000	0.000000000000000E+000	2.987189873238094E-007	2.987189873238094E-007	0.0000000E+000	1.000000000000000E+000	1.0531794E-005
2	1	1	0	0	0	0	6.298397861029662E+002	5.0035376E-002	5.0920568E-002	2.3787268E-001	-2.2175594E-005	-2.2175594E-005	41	0.0000000E+000	2.156893464820718E-006	2	1.074970921924159E-010	0.000000000000000E+000	9.379171544967645E+002	0.000000000000000E+000	0.000000000000000E+000	2.156893464820718E-006	2.156893464820718E-006	0.0000000E+000	1.000000000000000E+000	1.2112612E-005
2	1	0	0	0	0	0	6.298401861029561E+002	5.0035376E-002	5.1039003E-002	2.3061273E-001	-2.2082640E-005	-2.2082640E-005	41	0.0000000E+000	2.182714019404051E-006	2	1.088149475510153E-010	0.000000000000000E+000	9.357583825554141E+002	0.000000000000000E+000	0.000000000000000E+000	2.182714019404051E-006	2.182714019404051E-006	0.0000000E+000	1.000000000000000E+000	1.1770244E-005
2	1	0	0	0	0	0	6.298405861029460E+002	5.0035376E-002	5.1982637E-002	2.2293061E-001	-2.1992746E-005	-2.1992746E-005	41	0.0000000E+000	2.207684701716062E-006	2	1.101129894776385E-010	0.000000000000000E+000	8.508497224808439E+002	0.000000000000000E+000	0.000000000000000E+000	2.207684701716062E-006	2.207684701716062E-006	0.0000000E+000	1.000000000000000E+000	1.1588521E-005
2	1	0	0	0	0	0	6.298409861029359E+002	5.0035376E-002	5.1249124E-002	2.1588825E-001	-2.1905666E-005	-2.1905666E-005	41	0.0000000E+000	2.231873723859381E-006	2	1.113526556755548E-010	0.000000000000000E+000	9.334757027759167E+002	0.000000000000000E+000	0.000000000000000E+000	2.231873723859381E-006	2.231873723859381E-006	0.0000000E+000	1.000000000000000E+000	1.1064084E-005
2	1	0	0	0	0	0	6.298413861029258E+002	5.0035376E-002	5.2383780E-002	2.0831224E-001	-2.1821563E-005	-2.1821563E-005	41	0.0000000E+000	2.255235611098922E-006	2	1.125764396482961E-010	0.000000000000000E+000	8.333862512035879E+002	0.000000000000000E+000	0.000000000000000E+000	2.255235611098922E-006	2.255235611098922E-006	0.0000000E+000	1.000000000000000E+000	1.0912183E-005
2	1	0	0	0	0	0	6.298417861029156E+002	5.0035376E-002	5.0771575E-002	2.0084578E-001	-2.1740510E-005	-2.1740510E-005	41	0.0000000E+000	2.277750152441311E-006	2	1.137195383821326E-010	0.000000000000000E+000	1.008623391552015E+003	0.000000000000000E+000	0.000000000000000E+000	2.277750152441311E-006	2.277750152441311E-006	0.0000000E+000	1.000000000000000E+000	1.0197256E-005
2	1	0	0	0	0	0	6.298421861029055E+002	5.0035376E-002	5.1168893E-002	1.9346561E-001	-2.1662427E-005	-2.1662427E-005	41	0.0000000E+000	2.299440085254092E-006	2	1.148293882232688E-010	0.000000000000000E+000	9.707841322211781E+002	0.000000000000000E+000	0.000000000000000E+000	2.299440085254092E-006	2.299440085254092E-006	0.0000000E+000	1.000000000000000E+000	9.8994205E-006
2	1	0	0	0	0	0	6.298425861028954E+002	5.0035376E-002	5.2402880E-002	1.8556207E-001	-2.1587435E-005	-2.1587435E-005	41	0.0000000E+000	2.320271050848532E-006	2	1.159209908144898E-010	0.000000000000000E+000	8.557413440758904E+002	0.000000000000000E+000	0.000000000000000E+000	2.320271050848532E-006	2.320271050848532E-006	0.0000000E+000	1.000000000000000E+000	9.7239872E-006
2	1	0	0	0	0	0	6.298429861028853E+002	5.0035376E-002	5.1887129E-002	1.7787308E-001	-2.1515485E-005	-2.1515485E-005	41	0.0000000E+000	2.340257196919993E-006	2	1.169580145439620E-010	0.000000000000000E+000	9.112611671405874E+002	0.000000000000000E+000	0.000000000000000E+000	2.340257196919993E-006	2.340257196919993E-006	0.0000000E+000	1.000000000000000E+000	9.2293230E-006
2	1	0	0	0	0	0	6.298433861028752E+002	5.0035376E-002	5.2101072E-002	1.6987757E-001	-2.1446758E-005	-2.1446758E-005	41	0.0000000E+000	2.359347995985040E-006	2	1.179526656391361E-010	0.000000000000000E+000	8.979164608323889E+002	0.000000000000000E+000	0.000000000000000E+000	2.359347995985040E-006	2.359347995985040E-006	0.0000000E+000	1.000000000000000E+000	8.8508041E-006
2	1	0	0	0	0	0	6.298437861028651E+002	5.0035376E-002	5.2055225E-002	1.6220081E-001	-2.1381136E-005	-2.1381136E-005	41	0.0000000E+000	2.377576290907908E-006	2	1.189015436286341E-010	0.000000000000000E+000	9.092607441716182E+002	0.000000000000000E+000	0.000000000000000E+000	2.377576290907908E-006	2.377576290907908E-006	0.0000000E+000	1.000000000000000E+000	8.4433996E-006
2	1	0	0	0	0	0	6.298441861028550E+002	5.0035376E-002	5.1837463E-002	1.5456221E-001	-2.1318607E-005	-2.1318607E-005	41	0.0000000E+000	2.394945618612433E-006	2	1.198019255096690E-010	0.000000000000000E+000	9.375927249881199E+002	0.000000000000000E+000	0.000000000000000E+000	2.394945618612433E-006	2.394945618612433E-006	0.0000000E+000	1.000000000000000E+000	8.0121126E-006
2	1	0	0	0	0	0	6.298445861028449E+002	5.0035376E-002	5.2383780E-002	1.4663462E-001	-2.1259151E-005	-2.1259151E-005	41	0.0000000E+000	2.411461031846960E-006	2	1.206670652910736E-010	0.000000000000000E+000	8.911168568658802E+002	0.000000000000000E+000	0.000000000000000E+000	2.411461031846960E-006	2.411461031846960E-006	0.0000000E+000	1.000000000000000E+000	7.6812757E-006
2	1	0	0	0	0	0	6.298449861028348E+002	5.0035376E-002	5.3174600E-002	1.3888188E-001	-2.1202797E-005	-2.1202797E-005	41	0.0000000E+000	2.427114951488976E-006	2	1.214994562065505E-010	0.000000000000000E+000	8.295608274943039E+002	0.000000000000000E+000	0.000000000000000E+000	2.427114951488976E-006	2.427114951488976E-006	0.0000000E+000	1.000000000000000E+000	7.3849883E-006
2	1	0	0	0	0	0	6.298453861028247E+002	5.0035376E-002	5.1466886E-002	1.3118334E-001	-2.1149583E-005	-2.1149583E-005	41	0.0000000E+000	2.441896766766958E-006	2	1.222602302076576E-010	0.000000000000000E+000	9.961160434345757E+002	0.000000000000000E+000	0.000000000000000E+000	2.441896766766958E-006	2.441896766766958E-006	0.0000000E+000	1.000000000000000E+000	6.7515980E-006
2	1	0	0	0	0	0	6.298457861028146E+002	5.0035376E-002	5.3480234E-002	1.2345275E-001	-2.1099446E-005	-2.1099446E-005	41	0.0000000E+000	2.455823657025272E-006	2	1.230050435575243E-010	0.000000000000000E+000	8.157036237830497E+002	0.000000000000000E+000	0.000000000000000E+000	2.455823657025272E-006	2.455823657025272E-006	0.0000000E+000	1.000000000000000E+000	6.6022817E-006
2	1	0	0	0	0	0	6.298461861028045E+002	5.0035376E-002	5.2960660E-002	1.1583246E-001	-2.1052332E-005	-2.1052332E-005	41	0.0000000E+000	2.468910780508951E-006	2	1.236981462587601E-010	0.000000000000000E+000	8.613415058960386E+002	0.000000000000000E+000	0.000000000000000E+000	2.468910780508951E-006	2.468910780508951E-006	0.0000000E+000	1.000000000000000E+000	6.1345636E-006
2	1	0	0	0	0	0	6.298465861027944E+002	5.0035376E-002	5.2395239E-002	1.0812362E-001	-2.1008331E-005	-2.1008331E-005	41	0.0000000E+000	2.481133378751110E-006	2	1.243385522206328E-010	0.000000000000000E+000	9.157859682812334E+002	0.000000000000000E+000	0.000000000000000E+000	2.481133378751110E-006	2.481133378751110E-006	0.0000000E+000	1.000000000000000E+000	5.6651629E-006
2	1	0	0	0	0	0	6.298469861027843E+002	5.0035376E-002	5.3289212E-002	1.0026477E-001	-2.0967387E-005	-2.0967387E-005	41	0.0000000E+000	2.492506609996781E-006	2	1.249446227548665E-010	0.000000000000000E+000	8.427407308421398E+002	0.000000000000000E+000	0.000000000000000E+000	2.492506609996781E-006	2.492506609996781E-006	0.0000000E+000	1.000000000000000E+000	5.3430304E-006
2	1	0	0	0	0	0	6.298473861027742E+002	5.0035376E-002	5.2295908E-002	9.2695631E-002	-2.0929572E-005	-2.0929572E-005	41	0.0000000E+000	2.503010768527423E-006	2	1.254939472664884E-010	0.000000000000000E+000	9.333664980190119E+002	0.000000000000000E+000	0.000000000000000E+000	2.503010768527423E-006	2.503010768527423E-006	0.0000000E+000	1.000000000000000E+000	4.8476022E-006
2	1	0	0	0	0	0	6.298477861027641E+002	5.0035376E-002	5.2857507E-002	8.4723786E-002	-2.0894902E-005	-2.0894902E-005	41	0.0000000E+000	2.512641306869530E-006	2	1.260029935145150E-010	0.000000000000000E+000	8.854494459161101E+002	0.000000000000000E+000	0.000000000000000E+000	2.512641306869530E-006	2.512641306869530E-006	0.0000000E+000	1.000000000000000E+000	4.4782882E-006
2	1	0	0	0	0	0	6.298481861027540E+002	5.0035376E-002	5.3778220E-002	7.7290922E-002	-2.0863199E-005	-2.0863199E-005	41	0.0000000E+000	2.521447741956864E-006	2	1.264765879177762E-010	0.000000000000000E+000	8.150910823062371E+002	0.000000000000000E+000	0.000000000000000E+000	2.521447741956864E-006	2.521447741956864E-006	0.0000000E+000	1.000000000000000E+000	4.1565681E-006
2	1	0	0	0	0	0	6.298485861027439E+002	5.0035376E-002	5.2693229E-002	6.9814168E-002	-2.0834535E-005	-2.0834535E-005	41	0.0000000E+000	2.529409862796051E-006	2	1.268961377758240E-010	0.000000000000000E+000	9.059267479008880E+002	0.000000000000000E+000	0.000000000000000E+000	2.529409862796051E-006	2.529409862796051E-006	0.0000000E+000	1.000000000000000E+000	3.6787339E-006
2	1	0	0	0	0	0	6.298489861027338E+002	5.0035376E-002	5.4118235E-002	6.2285885E-002	-2.0808864E-005	-2.0808864E-005	41	0.0000000E+000	2.536540806532786E-006	2	1.272820518623458E-010	0.000000000000000E+000	7.956767295837747E+002	0.000000000000000E+000	0.000000000000000E+000	2.536540806532786E-006	2.536540806532786E-006	0.0000000E+000	1.000000000000000E+000	3.3708022E-006
2	1	0	0	0	0	0	6.298493861027237E+002	5.0035376E-002	5.2998863E-002	5.4930896E-002	-2.0786170E-005	-2.0786170E-005	41	0.0000000E+000	2.542844615365741E-006	2	1.276161465640743E-010	0.000000000000000E+000	8.838629174170601E+002	0.000000000000000E+000	0.000000000000000E+000	2.542844615365741E-006	2.542844615365741E-006	0.0000000E+000	1.000000000000000E+000	2.9112750E-006
2	1	0	0	0	0	0	6.298497861027136E+002	5.0035376E-002	5.3201340E-002	4.7743864E-002	-2.0766345E-005	-2.0766345E-005	41	0.0000000E+000	2.548351605784976E-006	2	1.279091258345097E-010	0.000000000000000E+000	8.687925220316380E+002	0.000000000000000E+000	0.000000000000000E+000	2.548351605784976E-006	2.548351605784976E-006	0.0000000E+000	1.000000000000000E+000	2.5400375E-006
2	1	0	0	0	0	0	6.298501861027034E+002	5.0035376E-002	5.3659789E-002	4.0221304E-002	-2.0749532E-005	-2.0749532E-005	41	0.0000000E+000	2.553021861078580E-006	2	1.281597307493745E-010	0.000000000000000E+000	8.341688175521127E+002	0.000000000000000E+000	0.000000000000000E+000	2.553021861078580E-006	2.553021861078580E-006	0.0000000E+000	1.000000000000000E+000	2.1582666E-006
2	1	0	0	0	0	0	6.298505861026933E+002	5.0035376E-002	5.3121116E-002	3.3412177E-002	-2.0735495E-005	-2.0735495E-005	41	0.0000000E+000	2.556921066975014E-006	2	1.283668609181550E-010	0.000000000000000E+000	8.783874232365513E+002	0.000000000000000E+000	0.000000000000000E+000	2.556921066975014E-006	2.556921066975014E-006	0.0000000E+000	1.000000000000000E+000	1.7748921E-006
2	1	0	0	0	0	0	6.298509861026832E+002	5.0035376E-002	5.3705633E-002	2.6297292E-002	-2.0724237E-005	-2.0724237E-005	41	0.0000000E+000	2.560048212924610E-006	2	1.285348062698814E-010	0.000000000000000E+000	8.329986746846728E+002	0.000000000000000E+000	0.000000000000000E+000	2.560048212924610E-006	2.560048212924610E-006	0.0000000E+000	1.000000000000000E+000	1.4123127E-006
2	1	0	0	0	0	0	6.298513861026731E+002	5.0035376E-002	5.3186063E-002	1.9351888E-002	-2.0715795E-005	-2.0715795E-005	41	0.0000000E+000	2.562393193430681E-006	2	1.286595265501625E-010	0.000000000000000E+000	8.748453403449759E+002	0.000000000000000E+000	0.000000000000000E+000	2.562393193430681E-006	2.562393193430681E-006	0.0000000E+000	1.000000000000000E+000	1.0292507E-006
2	1	0	0	0	0	0	6.298517861026630E+002	5.0035376E-002	5.3319775E-002	1.2509169E-002	-2.0710084E-005	-2.0710084E-005	41	0.0000000E+000	2.563979756410440E-006	2	1.287441217305813E-010	0.000000000000000E+000	8.644252591141980E+002	0.000000000000000E+000	0.000000000000000E+000	2.563979756410440E-006	2.563979756410440E-006	0.0000000E+000	1.000000000000000E+000	6.6698607E-007
2	1	0	0	0	0	0	6.298521861026529E+002	5.0035376E-002	5.3835530E-002	5.8992999E-003	-2.0707066E-005	-2.0707066E-005	41	0.0000000E+000	2.564818007360575E-006	2	1.287892494146157E-010	0.000000000000000E+000	8.248661986729395E+002	0.000000000000000E+000	0.000000000000000E+000	2.564818007360575E-006	2.564818007360575E-006	0.0000000E+000	1.000000000000000E+000	3.1759194E-007
2	0	0	0	0	0	0	6.298525861026428E+002	5.0035376E-002	5.3808786E-002	-2.5021445E-004	-2.0706571E-005	-2.0706571E-005	41	0.0000000E+000	1.374347549344817E-010	3	1.287966446119294E-010	0.000000000000000E+000	8.268859766769136E+002	0.000000000000000E+000	0.000000000000000E+000	1.374347549344817E-010	1.374347549344817E-010	0.0000000E+000	1.000000000000000E+000	-1.3463736E-008
2	0	0	0	0	0	0	6.298529861026327E+002	5.0035376E-002	5.3419106E-002	-6.5829549E-003	-2.0708576E-005	-2.0708576E-005	41	0.0000000E+000	-4.193781124840895E-010	3	1.287966446119294E-010	-2.974444542454082E-014	8.268859766769136E+002	0.000000000000000E+000	4.193781124840895E-010	0.000000000000000E+000	4.193781124840895E-010	0.0000000E+000	1.000000000000000E+000	-3.5165556E-007
2	0	0	0	0	0	0	6.298533861026226E+002	5.0035376E-002	5.3701814E-002	-1.3143582E-002	-2.0713143E-005	-2.0713143E-005	41	0.0000000E+000	-1.688123221457324E-009	3	1.287966446119294E-010	-9.787835961505486E-014	8.268859766769136E+002	2.324658588530377E+001	1.688123221457324E-009	0.000000000000000E+000	1.688123221457324E-009	0.0000000E+000	1.000000000000000E+000	-7.0583422E-007
2	0	0	0	0	0	0	6.298537861026125E+002	5.0035376E-002	5.3377081E-002	-1.9273246E-002	-2.0720270E-005	-2.0720270E-005	41	0.0000000E+000	-3.667790022316681E-009	3	1.287966446119294E-010	-2.035471942209421E-013	8.268859766769136E+002	3.259680962459083E+002	3.667790022316681E-009	0.000000000000000E+000	3.667790022316681E-009	0.0000000E+000	1.000000000000000E+000	-1.0287496E-006
2	0	0	0	0	0	0	6.298541861026024E+002	5.0035376E-002	5.4160260E-002	-2.5212813E-002	-2.0729774E-005	-2.0729774E-005	41	0.0000000E+000	-6.307851031629952E-009	3	1.287966446119294E-010	-3.465335840143057E-013	8.268859766769136E+002	3.130662483915856E+001	6.307851031629952E-009	0.000000000000000E+000	6.307851031629952E-009	0.0000000E+000	1.000000000000000E+000	-1.3655325E-006
2	0	0	0	0	0	0	6.298545861025923E+002	5.0035376E-002	5.3942498E-002	-3.1160399E-002	-2.0741671E-005	-2.0741671E-005	41	0.0000000E+000	-9.612348448071309E-009	3	1.287966446119294E-010	-5.247864286957727E-013	8.268859766769136E+002	6.706104044926226E+001	9.612348448071309E-009	0.000000000000000E+000	9.612348448071309E-009	0.0000000E+000	1.000000000000000E+000	-1.6808698E-006
2	0	0	0	0	0	0	6.298549861025822E+002	5.0035376E-002	5.2651208E-002	-3.6740005E-002	-2.0755797E-005	-2.0755797E-005	41	0.0000000E+000	-1.353631281138680E-008	3	1.287966446119294E-010	-7.313878921576847E-013	8.268859766769136E+002	6.410422104147186E+001	1.353631281138680E-008	0.000000000000000E+000	1.353631281138680E-008	0.0000000E+000	1.000000000000000E+000	-1.9344056E-006
2	0	0	0	0	0	0	6.298553861025721E+002	5.0035376E-002	5.4484993E-002	-4.2375341E-002	-2.0772201E-005	-2.0772201E-005	41	0.0000000E+000	-1.809288126726917E-008	3	1.287966446119294E-010	-9.796524935800564E-013	8.268859766769136E+002	6.157229258847497E+001	1.809288126726917E-008	0.000000000000000E+000	1.809288126726917E-008	0.0000000E+000	1.000000000000000E+000	-2.3088201E-006
2	0	0	0	0	0	0	6.298557861025620E+002	5.0035376E-002	5.3037066E-002	-4.7578570E-002	-2.0790731E-005	-2.0790731E-005	41	0.0000000E+000	-2.324011600447010E-008	3	1.287966446119294E-010	-1.252646722119437E-012	8.268859766769136E+002	2.202891050846888E+002	2.324011600447010E-008	0.000000000000000E+000	2.324011600447010E-008	0.0000000E+000	1.000000000000000E+000	-2.5234278E-006
2	0	0	0	0	0	0	6.298561861025519E+002	5.0035376E-002	5.3858452E-002	-5.2918840E-002	-2.0811345E-005	-2.0811345E-005	41	0.0000000E+000	-2.896639570179922E-008	3	1.287966446119294E-010	-1.561055279732521E-012	8.268859766769136E+002	2.384768009768010E+002	2.896639570179922E-008	0.000000000000000E+000	2.896639570179922E-008	0.0000000E+000	1.000000000000000E+000	-2.8501267E-006
2	0	0	0	0	0	0	6.298565861025418E+002	5.0035376E-002	5.4225206E-002	-5.8057938E-002	-2.0834108E-005	-2.0834108E-005	41	0.0000000E+000	-3.528940497845816E-008	3	1.287966446119294E-010	-1.903921762671163E-012	8.268859766769136E+002	1.582142632263632E+002	3.528940497845816E-008	0.000000000000000E+000	3.528940497845816E-008	0.0000000E+000	1.000000000000000E+000	-3.1482036E-006
2	0	0	0	0	0	0	6.298571861025266E+002	5.0035376E-002	5.3846989E-002	-6.5287344E-002	-2.0871821E-005	-2.0871821E-005	41	0.0000000E+000	-4.576526811837905E-008	3	1.287966446119294E-010	-2.468015448119562E-012	8.268859766769136E+002	3.862029681500757E+002	4.576526811837905E-008	0.000000000000000E+000	4.576526811837905E-008	0.0000000E+000	1.000000000000000E+000	-3.5155269E-006
2	0	0	0	0	0	0	6.298577861025115E+002	5.0035376E-002	5.2949198E-002	-7.1948737E-002	-2.0913720E-005	-2.0913720E-005	41	0.0000000E+000	-5.740376865206691E-008	3	1.287966446119294E-010	-3.084264712533207E-012	8.268859766769136E+002	4.408273111721089E+002	5.740376865206691E-008	0.000000000000000E+000	5.740376865206691E-008	0.0000000E+000	1.000000000000000E+000	-3.8096280E-006
2	0	0	0	0	0	0	6.298583861024963E+002	5.0035376E-002	5.3713277E-002	-7.8394853E-002	-2.0959391E-005	-2.0959391E-005	41	0.0000000E+000	-7.009020919213071E-008	3	1.287966446119294E-010	-3.765695007181228E-012	8.268859766769136E+002	8.594296615790329E+002	7.009020919213071E-008	0.000000000000000E+000	7.009020919213071E-008	0.0000000E+000	1.000000000000000E+000	-4.2108445E-006
2	0	0	0	0	0	0	6.298589861024811E+002	5.0035376E-002	5.3323597E-002	-8.4299304E-002	-2.1008767E-005	-2.1008767E-005	41	0.0000000E+000	-8.380589456970117E-008	3	1.287966446119294E-010	-4.497064682937334E-012	8.268859766769136E+002	3.164057929148150E+003	8.380589456970117E-008	0.000000000000000E+000	8.380589456970117E-008	0.0000000E+000	1.000000000000000E+000	-4.4951421E-006
2	0	0	0	0	0	0	6.298595861024660E+002	5.0035376E-002	5.4500274E-002	-8.9893788E-002	-2.1061513E-005	-2.1061513E-005	41	0.0000000E+000	-9.845734894042835E-008	3	1.287966446119294E-010	-5.295572965917621E-012	8.268859766769136E+002	3.282940369981459E+002	9.845734894042835E-008	0.000000000000000E+000	9.845734894042835E-008	0.0000000E+000	1.000000000000000E+000	-4.8992360E-006
2	0	0	0	0	0	0	6.298603861024458E+002	5.0035376E-002	5.3155500E-002	-9.6427321E-002	-2.1136701E-005	-2.1136701E-005	41	0.0000000E+000	-1.193428842169751E-007	3	1.287966446119294E-010	-6.405754045537115E-012	8.268859766769136E+002	1.631716822296180E+003	1.193428842169751E-007	0.000000000000000E+000	1.193428842169751E-007	0.0000000E+000	1.000000000000000E+000	-5.1256425E-006
2	0	0	0	0	0	0	6.298611861024256E+002	5.0035376E-002	5.3170778E-002	-1.0239781E-001	-2.1216852E-005	-2.1216852E-005	41	0.0000000E+000	-1.416073145163764E-007	3	1.287966446119294E-010	-7.589571123106001E-012	8.268859766769136E+002	2.054868572794780E+003	1.416073145163764E-007	0.000000000000000E+000	1.416073145163764E-007	0.0000000E+000	1.000000000000000E+000	-5.4445709E-006
2	0	0	0	0	0	0	6.298619861024054E+002	5.0035376E-002	5.3251009E-002	-1.0751400E-001	-2.1301341E-005	-2.1301341E-005	41	0.0000000E+000	-1.650763200207921E-007	3	1.287966446119294E-010	-8.839319356639073E-012	8.268859766769136E+002	3.538267104636208E+003	1.650763200207921E-007	0.000000000000000E+000	1.650763200207921E-007	0.0000000E+000	1.000000000000000E+000	-5.7252291E-006
2	0	0	0	0	0	0	6.298629861023801E+002	5.0035376E-002	5.3189881E-002	-1.1261914E-001	-2.1412094E-005	-2.1412094E-005	41	0.0000000E+000	-1.958409888579299E-007	3	1.287966446119294E-010	-1.047568843558107E-011	8.268859766769136E+002	3.077865290113267E+003	1.958409888579299E-007	0.000000000000000E+000	1.958409888579299E-007	0.0000000E+000	1.000000000000000E+000	-5.9901986E-006
2	0	0	0	0	0	0	6.298643861023447E+002	5.0035376E-002	5.2315012E-002	-1.1799452E-001	-2.1574158E-005	-2.1574158E-005	41	0.0000000E+000	-2.408589554963528E-007	3	1.287966446119294E-010	-1.283080388340242E-011	8.268859766769136E+002	7.857908255040851E+002	2.408589554963528E-007	0.000000000000000E+000	2.408589554963528E-007	0.0000000E+000	1.000000000000000E+000	-6.1728847E-006
2	0	0	0	0	0	0	6.298709861021780E+002	5.0035376E-002	5.1168893E-002	-1.1250119E-001	-2.2360246E-005	-2.2360246E-005	41	0.0000000E+000	-4.592165067960095E-007	3	1.287966446119294E-010	-2.400391795953341E-011	8.268859766769136E+002	7.348966787734030E+002	4.592165067960095E-007	0.000000000000000E+000	4.592165067960095E-007	0.0000000E+000	1.000000000000000E+000	-5.7565612E-006
2	0	0	0	0	0	0	6.298721861021477E+002	5.0035376E-002	5.1566217E-002	-1.0732161E-001	-2.2491729E-005	-2.2491729E-005	41	0.0000000E+000	-4.957397929198732E-007	3	1.287966446119294E-010	-2.588728566080695E-011	8.268859766769136E+002	9.634459439167363E+002	4.957397929198732E-007	0.000000000000000E+000	4.957397929198732E-007	0.0000000E+000	1.000000000000000E+000	-5.5341698E-006
2	0	0	0	0	0	0	6.298731861021224E+002	5.0035376E-002	5.1111590E-002	-1.0136640E-001	-2.2595510E-005	-2.2595510E-005	41	0.0000000E+000	-5.245677433170686E-007	3	1.287966446119294E-010	-2.736072804542783E-011	8.268859766769136E+002	8.186027639913365E+002	5.245677433170686E-007	0.000000000000000E+000	5.245677433170686E-007	0.0000000E+000	1.000000000000000E+000	-5.1809980E-006
2	0	0	0	0	0	0	6.298739861021022E+002	5.0035376E-002	5.0431557E-002	-9.6362427E-002	-2.2674150E-005	-2.2674150E-005	41	0.0000000E+000	-5.464122902291519E-007	3	1.287966446119294E-010	-2.846238255815682E-011	8.268859766769136E+002	6.585931148405666E+002	5.464122902291519E-007	0.000000000000000E+000	5.464122902291519E-007	0.0000000E+000	1.000000000000000E+000	-4.8597071E-006
2	0	0	0	0	0	0	6.298747861020820E+002	5.0035376E-002	5.0943494E-002	-9.0890467E-002	-2.2748525E-005	-2.2748525E-005	41	0.0000000E+000	-5.670719676547578E-007	3	1.287966446119294E-010	-2.951485870788816E-011	8.268859766769136E+002	8.248279454120277E+002	5.670719676547578E-007	0.000000000000000E+000	5.670719676547578E-007	0.0000000E+000	1.000000000000000E+000	-4.6302780E-006
2	0	0	0	0	0	0	6.298755861020618E+002	5.0035376E-002	5.0649323E-002	-8.4681019E-002	-2.2818265E-005	-2.2818265E-005	41	0.0000000E+000	-5.864442048025212E-007	3	1.287966446119294E-010	-3.049604939607557E-011	8.268859766769136E+002	7.624040570175434E+002	5.864442048025212E-007	0.000000000000000E+000	5.864442048025212E-007	0.0000000E+000	1.000000000000000E+000	-4.2890360E-006
2	0	0	0	0	0	0	6.298763861020416E+002	5.0035376E-002	5.0297845E-002	-7.8746796E-002	-2.2883129E-005	-2.2883129E-005	41	0.0000000E+000	-6.044618001194776E-007	3	1.287966446119294E-010	-3.140229561539331E-011	8.268859766769136E+002	6.973327628924150E+002	6.044618001194776E-007	0.000000000000000E+000	6.044618001194776E-007	0.0000000E+000	1.000000000000000E+000	-3.9607939E-006
2	0	0	0	0	0	0	6.298769861020264E+002	5.0035376E-002	5.0408635E-002	-7.3667623E-002	-2.2928398E-005	-2.2928398E-005	41	0.0000000E+000	-6.170365749211569E-007	3	1.287966446119294E-010	-3.203617285220589E-011	8.268859766769136E+002	7.380329731802450E+002	6.170365749211569E-007	0.000000000000000E+000	6.170365749211569E-007	0.0000000E+000	1.000000000000000E+000	-3.7134844E-006
2	0	0	0	0	0	0	6.298775861020113E+002	5.0035376E-002	5.0358970E-002	-6.8358667E-002	-2.2970456E-005	-2.2970456E-005	41	0.0000000E+000	-6.287195396402640E-007	3	1.287966446119294E-010	-3.262451491871441E-011	8.268859766769136E+002	7.397988569588612E+002	6.287195396402640E-007	0.000000000000000E+000	6.287195396402640E-007	0.0000000E+000	1.000000000000000E+000	-3.4424720E-006
2	0	0	0	0	0	0	6.298781861019961E+002	5.0035376E-002	4.9690399E-002	-6.3300483E-002	-2.3009419E-005	-2.3009419E-005	41	0.0000000E+000	-6.395425265913618E-007	3	1.287966446119294E-010	-3.316231346213807E-011	8.268859766769136E+002	6.175996767214460E+002	6.395425265913618E-007	0.000000000000000E+000	6.395425265913618E-007	0.0000000E+000	1.000000000000000E+000	-3.1454263E-006
2	0	0	0	0	0	0	6.298787861019810E+002	5.0035376E-002	5.0783034E-002	-5.7571623E-002	-2.3045139E-005	-2.3045139E-005	41	0.0000000E+000	-6.494646085128706E-007	3	1.287966446119294E-010	-3.366618688981710E-011	8.268859766769136E+002	8.871411636712761E+002	6.494646085128706E-007	0.000000000000000E+000	6.494646085128706E-007	0.0000000E+000	1.000000000000000E+000	-2.9236617E-006
2	0	0	0	0	0	0	6.298793861019658E+002	5.0035376E-002	4.9438257E-002	-5.1927891E-002	-2.3077448E-005	-2.3077448E-005	41	0.0000000E+000	-6.584393001200324E-007	3	1.287966446119294E-010	-3.410987999792687E-011	8.268859766769136E+002	5.955705133101599E+002	6.584393001200324E-007	0.000000000000000E+000	6.584393001200324E-007	0.0000000E+000	1.000000000000000E+000	-2.5672243E-006
2	0	0	0	0	0	0	6.298799861019506E+002	5.0035376E-002	5.0240539E-002	-4.6215829E-002	-2.3106342E-005	-2.3106342E-005	41	0.0000000E+000	-6.664655908631785E-007	3	1.287966446119294E-010	-3.451312517114833E-011	8.268859766769136E+002	7.549852254348134E+002	6.664655908631785E-007	0.000000000000000E+000	6.664655908631785E-007	0.0000000E+000	1.000000000000000E+000	-2.3219081E-006
2	0	0	0	0	0	0	6.298805861019355E+002	5.0035376E-002	4.9396232E-002	-4.0262517E-002	-2.3131672E-005	-2.3131672E-005	41	0.0000000E+000	-6.735015429310606E-007	3	1.287966446119294E-010	-3.486067469021967E-011	8.268859766769136E+002	6.028278183692756E+002	6.735015429310606E-007	0.000000000000000E+000	6.735015429310606E-007	0.0000000E+000	1.000000000000000E+000	-1.9888166E-006
2	0	0	0	0	0	0	6.298811861019203E+002	5.0035376E-002	4.9843218E-002	-3.4739789E-002	-2.3153641E-005	-2.3153641E-005	41	0.0000000E+000	-6.796042523799569E-007	3	1.287966446119294E-010	-3.516485336875525E-011	8.268859766769136E+002	6.843252346285271E+002	6.796042523799569E-007	0.000000000000000E+000	6.796042523799569E-007	0.0000000E+000	1.000000000000000E+000	-1.7315429E-006
2	0	0	0	0	0	0	6.298817861019052E+002	5.0035376E-002	4.9025655E-002	-2.8904812E-002	-2.3172117E-005	-2.3172117E-005	41	0.0000000E+000	-6.847363288721280E-007	3	1.287966446119294E-010	-3.541645677923060E-011	8.268859766769136E+002	5.611865470450874E+002	6.847363288721280E-007	0.000000000000000E+000	6.847363288721280E-007	0.0000000E+000	1.000000000000000E+000	-1.4170773E-006
2	0	0	0	0	0	0	6.298823861018900E+002	5.0035376E-002	4.9652200E-002	-2.2261735E-002	-2.3186880E-005	-2.3186880E-005	41	0.0000000E+000	-6.888371394274546E-007	3	1.287966446119294E-010	-3.562007104587401E-011	8.268859766769136E+002	6.584472204750725E+002	6.888371394274546E-007	0.000000000000000E+000	6.888371394274546E-007	0.0000000E+000	1.000000000000000E+000	-1.1053442E-006
2	0	0	0	0	0	0	6.298829861018748E+002	5.0035376E-002	4.8914861E-002	-1.6300026E-002	-2.3197808E-005	-2.3197808E-005	41	0.0000000E+000	-6.918728306320391E-007	3	1.287966446119294E-010	-3.576856145898489E-011	8.268859766769136E+002	5.530864950884912E+002	6.918728306320391E-007	0.000000000000000E+000	6.918728306320391E-007	0.0000000E+000	1.000000000000000E+000	-7.9731353E-007
2	0	0	0	0	0	0	6.298835861018597E+002	5.0035376E-002	4.8823174E-002	-1.0607813E-002	-2.3205394E-005	-2.3205394E-005	41	0.0000000E+000	-6.939798266911466E-007	3	1.287966446119294E-010	-3.587143169438394E-011	8.268859766769136E+002	5.437030722247755E+002	6.939798266911466E-007	0.000000000000000E+000	6.939798266911466E-007	0.0000000E+000	1.000000000000000E+000	-5.1790710E-007
2	0	0	0	0	0	0	6.298841861018445E+002	5.0035376E-002	4.9254879E-002	-4.8610140E-003	-2.3209433E-005	-2.3209433E-005	41	0.0000000E+000	-6.951020420981676E-007	3	1.287966446119294E-010	-3.592670627886757E-011	8.268859766769136E+002	6.010389216154840E+002	6.951020420981676E-007	0.000000000000000E+000	6.951020420981676E-007	2.7101418E+001	1.000000000000000E+000	-2.3942866E-007
2	1	0	0	0	0	0	6.298847861018294E+002	5.0035376E-002	4.8651256E-002	1.5610486E-003	-2.3209757E-005	-2.3209757E-005	41	0.0000000E+000	-8.993892050875035E-011	4	0.000000000000000E+000	-4.375641416104057E-015	0.000000000000000E+000	0.000000000000000E+000	8.993892050875035E-011	0.000000000000000E+000	8.993892050875035E-011	0.0000000E+000	2.000000000000000E+000	7.5946971E-008
2	1	0	0	0	0	0	6.298853861018142E+002	5.0035376E-002	4.9698047E-002	7.1452353E-003	-2.3206545E-005	-2.3206545E-005	41	0.0000000E+000	8.023764368972618E-010	4	4.434633087449826E-014	-4.375641416104057E-015	0.000000000000000E+000	0.000000000000000E+000	0.000000000000000E+000	8.023764368972618E-010	8.023764368972618E-010	0.0000000E+000	2.000000000000000E+000	3.5510425E-007
2	1	0	0	0	0	0	6.298859861017991E+002	5.0035376E-002	4.8956890E-002	1.3362696E-002	-2.3199746E-005	-2.3199746E-005	41	0.0000000E+000	2.691093767579325E-009	4	1.368120568300552E-013	-4.375641416104057E-015	1.350821550818626E+001	0.000000000000000E+000	0.000000000000000E+000	2.691093767579325E-009	2.691093767579325E-009	0.0000000E+000	2.000000000000000E+000	6.5419607E-007
2	1	0	0	0	0	0	6.298865861017839E+002	5.0035376E-002	4.8876658E-002	1.8872447E-002	-2.3189554E-005	-2.3189554E-005	41	0.0000000E+000	5.522148664264912E-009	4	2.751845590267521E-013	-4.375641416104057E-015	2.459676104925558E+001	0.000000000000000E+000	0.000000000000000E+000	5.522148664264912E-009	5.522148664264912E-009	0.0000000E+000	2.000000000000000E+000	9.2242215E-007
2	1	0	0	0	0	0	6.298871861017687E+002	5.0035376E-002	4.8559569E-002	2.5026161E-002	-2.3175686E-005	-2.3175686E-005	41	0.0000000E+000	9.374364001107110E-009	4	4.622464747947835E-013	-4.375641416104057E-015	2.992721425404410E+001	0.000000000000000E+000	0.000000000000000E+000	9.374364001107110E-009	9.374364001107110E-009	0.0000000E+000	2.000000000000000E+000	1.2152595E-006
2	1	0	0	0	0	0	6.298877861017536E+002	5.0035376E-002	4.8166066E-002	3.0579811E-002	-2.3158442E-005	-2.3158442E-005	41	0.0000000E+000	1.416436943044481E-008	4	6.929621943996976E-013	-4.375641416104057E-015	3.349618066363075E+001	0.000000000000000E+000	0.000000000000000E+000	1.416436943044481E-008	1.416436943044481E-008	0.0000000E+000	2.000000000000000E+000	1.4729092E-006
2	1	0	0	0	0	0	6.298883861017384E+002	5.0035376E-002	4.9209032E-002	3.6107883E-002	-2.3137754E-005	-2.3137754E-005	41	0.0000000E+000	1.991086012114648E-008	4	9.757414398798419E-013	-4.375641416104057E-015	1.472405899336470E+002	0.000000000000000E+000	0.000000000000000E+000	1.991086012114648E-008	1.991086012114648E-008	0.0000000E+000	2.000000000000000E+000	1.7768340E-006
2	1	0	0	0	0	0	6.298889861017233E+002	5.0035376E-002	4.8353266E-002	4.1212250E-002	-2.3114027E-005	-2.3114027E-005	41	0.0000000E+000	2.650166505999459E-008	4	1.294428384050584E-012	-4.375641416104057E-015	7.118612477734706E+001	0.000000000000000E+000	0.000000000000000E+000	2.650166505999459E-008	2.650166505999459E-008	0.0000000E+000	2.000000000000000E+000	1.9927468E-006
2	1	0	0	0	0	0	6.298895861017081E+002	5.0035376E-002	4.8219550E-002	4.6420820E-002	-2.3087154E-005	-2.3087154E-005	41	0.0000000E+000	3.396659546221324E-008	4	1.654383971820118E-012	-4.375641416104057E-015	8.292443531562449E+001	0.000000000000000E+000	0.000000000000000E+000	3.396659546221324E-008	3.396659546221324E-008	0.0000000E+000	2.000000000000000E+000	2.2383911E-006
2	1	0	0	0	0	0	6.298901861016930E+002	5.0035376E-002	4.8020892E-002	5.1716812E-002	-2.3057215E-005	-2.3057215E-005	41	0.0000000E+000	4.228291396025813E-008	4	2.053741002965186E-012	-4.375641416104057E-015	9.095296819747863E+001	0.000000000000000E+000	0.000000000000000E+000	4.228291396025813E-008	4.228291396025813E-008	0.0000000E+000	2.000000000000000E+000	2.4834874E-006
2	1	0	0	0	0	0	6.298909861016728E+002	5.0035376E-002	4.8322700E-002	5.8265604E-002	-2.3012626E-005	-2.3012626E-005	41	0.0000000E+000	5.466871597390217E-008	4	2.652256397484590E-012	-4.375641416104057E-015	1.433319036910339E+002	0.000000000000000E+000	0.000000000000000E+000	5.466871597390217E-008	5.466871597390217E-008	0.0000000E+000	2.000000000000000E+000	2.8155514E-006
2	1	0	0	0	0	0	6.298917861016525E+002	5.0035376E-002	4.9113523E-002	6.4167768E-002	-2.2962977E-005	-2.2962977E-005	41	0.0000000E+000	6.846019257662009E-008	4	3.329604403782070E-012	-4.375641416104057E-015	4.221903988110809E+002	0.000000000000000E+000	0.000000000000000E+000	6.846019257662009E-008	6.846019257662009E-008	0.0000000E+000	2.000000000000000E+000	3.1515051E-006
2	1	0	0	0	0	0	6.298925861016323E+002	5.0035376E-002	4.8590131E-002	6.9879442E-002	-2.2908676E-005	-2.2908676E-005	41	0.0000000E+000	8.354365693068941E-008	4	4.062511914248695E-012	-4.375641416104057E-015	2.717542493754284E+002	0.000000000000000E+000	0.000000000000000E+000	8.354365693068941E-008	8.354365693068941E-008	0.0000000E+000	2.000000000000000E+000	3.3954514E-006
2	1	0	0	0	0	0	6.298933861016121E+002	5.0035376E-002	4.8475519E-002	7.5677015E-002	-2.2849936E-005	-2.2849936E-005	41	0.0000000E+000	9.986049715533044E-008	4	4.853479209684780E-012	-4.375641416104057E-015	2.943257067602166E+002	0.000000000000000E+000	0.000000000000000E+000	9.986049715533044E-008	9.986049715533044E-008	0.0000000E+000	2.000000000000000E+000	3.6684826E-006
2	1	0	0	0	0	0	6.298943861015869E+002	5.0035376E-002	4.7608290E-002	8.1756294E-002	-2.2770510E-005	-2.2770510E-005	41	0.0000000E+000	1.219233227958384E-007	4	5.903852608077275E-012	-4.375641416104057E-015	2.101907747698163E+002	0.000000000000000E+000	0.000000000000000E+000	1.219233227958384E-007	1.219233227958384E-007	0.0000000E+000	2.000000000000000E+000	3.8922772E-006
2	1	0	0	0	0	0	6.298953861015616E+002	5.0035376E-002	4.8395287E-002	8.7565310E-002	-2.2685283E-005	-2.2685283E-005	41	0.0000000E+000	1.455974698829878E-007	4	7.049569756652368E-012	-4.375641416104057E-015	4.025873021021884E+002	0.000000000000000E+000	0.000000000000000E+000	1.455974698829878E-007	1.455974698829878E-007	0.0000000E+000	2.000000000000000E+000	4.2377483E-006
2	1	0	0	0	0	0	6.298965861015313E+002	5.0035376E-002	4.8857559E-002	9.2944130E-002	-2.2576343E-005	-2.2576343E-005	41	0.0000000E+000	1.758583797103110E-007	4	8.528043929368348E-012	-4.375641416104057E-015	7.536256652590480E+002	0.000000000000000E+000	0.000000000000000E+000	1.758583797103110E-007	1.758583797103110E-007	0.0000000E+000	2.000000000000000E+000	4.5410234E-006
2	1	0	0	0	0	0	6.298977861015010E+002	5.0035376E-002	4.9239594E-002	9.7975209E-002	-2.2461043E-005	-2.2461043E-005	41	0.0000000E+000	2.078862356332447E-007	4	1.010508256737648E-011	-4.375641416104057E-015	1.633132452870439E+003	0.000000000000000E+000	0.000000000000000E+000	2.078862356332447E-007	2.078862356332447E-007	0.0000000E+000	2.000000000000000E+000	4.8242596E-006
2	1	0	0	0	0	0	6.298995861014555E+002	5.0035376E-002	4.8895761E-002	1.0349641E-001	-2.2278873E-005	-2.2278873E-005	41	0.0000000E+000	2.584890050153872E-007	4	1.257934350378020E-011	-4.375641416104057E-015	1.160289764298021E+003	0.000000000000000E+000	0.000000000000000E+000	2.584890050153872E-007	2.584890050153872E-007	0.0000000E+000	2.000000000000000E+000	5.0605358E-006
2	1	0	0	0	0	0	6.299089861012180E+002	5.0035376E-002	4.8891943E-002	9.8197751E-002	-2.1288708E-005	-2.1288708E-005	41	0.0000000E+000	5.335348558017158E-007	4	2.602686954853782E-011	-4.375641416104057E-015	2.383127148927617E+003	0.000000000000000E+000	0.000000000000000E+000	5.335348558017158E-007	5.335348558017158E-007	0.0000000E+000	2.000000000000000E+000	4.8010788E-006
2	1	0	0	0	0	0	6.299105861011776E+002	5.0035376E-002	4.9847037E-002	9.2552103E-002	-2.1136653E-005	-2.1136653E-005	41	0.0000000E+000	5.757722950268853E-007	4	2.813228072748989E-011	-4.375641416104057E-015	1.391445289058986E+004	0.000000000000000E+000	0.000000000000000E+000	5.757722950268853E-007	5.757722950268853E-007	0.0000000E+000	2.000000000000000E+000	4.6134483E-006
2	1	0	0	0	0	0	6.299117861011473E+002	5.0035376E-002	5.0225258E-002	8.7020211E-002	-2.1029520E-005	-2.1029520E-005	41	0.0000000E+000	6.055314669437293E-007	4	2.962694281111625E-011	-4.375641416104057E-015	4.135420144482838E+003	0.000000000000000E+000	0.000000000000000E+000	6.055314669437293E-007	6.055314669437293E-007	0.0000000E+000	2.000000000000000E+000	4.3706127E-006
2	1	0	0	0	0	0	6.299129861011170E+002	5.0035376E-002	5.0561450E-002	8.0976054E-002	-2.0929023E-005	-2.0929023E-005	41	0.0000000E+000	6.334473962649808E-007	4	3.103841268747146E-011	-4.375641416104057E-015	2.641563893500183E+003	0.000000000000000E+000	0.000000000000000E+000	6.334473962649808E-007	6.334473962649808E-007	0.0000000E+000	2.000000000000000E+000	4.0942668E-006
2	1	0	0	0	0	0	6.299141861010867E+002	5.0035376E-002	5.0339866E-002	7.5230405E-002	-2.0835638E-005	-2.0835638E-005	41	0.0000000E+000	6.593877009840480E-007	4	3.234424416217157E-011	-4.375641416104057E-015	3.699047818828470E+003	0.000000000000000E+000	0.000000000000000E+000	6.593877009840480E-007	6.593877009840480E-007	0.0000000E+000	2.000000000000000E+000	3.7870884E-006
2	1	0	0	0	0	0	6.299151861010614E+002	5.0035376E-002	5.0874721E-002	6.9545440E-002	-2.0763764E-005	-2.0763764E-005	41	0.0000000E+000	6.793526255124662E-007	4	3.335995413250940E-011	-4.375641416104057E-015	2.078734977074568E+003	0.000000000000000E+000	0.000000000000000E+000	6.793526255124662E-007	6.793526255124662E-007	0.0000000E+000	2.000000000000000E+000	3.5381049E-006
2	1	0	0	0	0	0	6.299161861010361E+002	5.0035376E-002	5.1058102E-002	6.4126536E-002	-2.0697365E-005	-2.0697365E-005	41	0.0000000E+000	6.977966727895873E-007	4	3.430167218703869E-011	-4.375641416104057E-015	1.847272127088887E+003	0.000000000000000E+000	0.000000000000000E+000	6.977966727895873E-007	6.977966727895873E-007	0.0000000E+000	2.000000000000000E+000	3.2741793E-006
2	1	0	0	0	0	0	6.299171861010109E+002	5.0035376E-002	5.0859444E-002	5.8244228E-002	-2.0636799E-005	-2.0636799E-005	41	0.0000000E+000	7.146208089478832E-007	4	3.515733839519466E-011	-4.375641416104057E-015	2.215400756491372E+003	0.000000000000000E+000	0.000000000000000E+000	7.146208089478832E-007	7.146208089478832E-007	0.0000000E+000	2.000000000000000E+000	2.9622690E-006
2	1	0	0	0	0	0	6.299181861009856E+002	5.0035376E-002	5.0622579E-002	5.2369554E-002	-2.0582214E-005	-2.0582214E-005	41	0.0000000E+000	7.297830961761065E-007	4	3.592489247383384E-011	-4.375641416104057E-015	2.842026793755063E+003	0.000000000000000E+000	0.000000000000000E+000	7.297830961761065E-007	7.297830961761065E-007	0.0000000E+000	2.000000000000000E+000	2.6510818E-006
2	1	0	0	0	0	0	6.299189861009654E+002	5.0035376E-002	5.0557632E-002	4.6666648E-002	-2.0543204E-005	-2.0543204E-005	41	0.0000000E+000	7.406192202728971E-007	4	3.647274124821763E-011	-4.375641416104057E-015	3.102141184266698E+003	0.000000000000000E+000	0.000000000000000E+000	7.406192202728971E-007	7.406192202728971E-007	0.0000000E+000	2.000000000000000E+000	2.3593552E-006
2	1	0	0	0	0	0	6.299199861009402E+002	5.0035376E-002	5.0607298E-002	4.1048490E-002	-2.0500065E-005	-2.0500065E-005	41	0.0000000E+000	7.526023182435893E-007	4	3.707917345302508E-011	-4.375641416104057E-015	2.980139061379699E+003	0.000000000000000E+000	0.000000000000000E+000	7.526023182435893E-007	7.526023182435893E-007	0.0000000E+000	2.000000000000000E+000	2.0773532E-006
2	1	0	0	0	0	0	6.299207861009199E+002	5.0035376E-002	5.1019900E-002	3.5744101E-002	-2.0469934E-005	-2.0469934E-005	41	0.0000000E+000	7.609721958740720E-007	4	3.750620376895383E-011	-4.375641416104057E-015	2.072715595866495E+003	0.000000000000000E+000	0.000000000000000E+000	7.609721958740720E-007	7.609721958740720E-007	0.0000000E+000	2.000000000000000E+000	1.8236605E-006
2	1	0	0	0	0	0	6.299217861008947E+002	5.0035376E-002	5.1088668E-002	2.9461751E-002	-2.0437863E-005	-2.0437863E-005	41	0.0000000E+000	7.698806964779378E-007	4	3.796132720229947E-011	-4.375641416104057E-015	1.993277935319402E+003	0.000000000000000E+000	0.000000000000000E+000	7.698806964779378E-007	7.698806964779378E-007	0.0000000E+000	2.000000000000000E+000	1.5051617E-006
2	1	0	0	0	0	0	6.299225861008745E+002	5.0035376E-002	5.1081024E-002	2.4457015E-002	-2.0416743E-005	-2.0416743E-005	41	0.0000000E+000	7.757474425792079E-007	4	3.826100660134755E-011	-4.375641416104057E-015	2.019567235817801E+003	0.000000000000000E+000	0.000000000000000E+000	7.757474425792079E-007	7.757474425792079E-007	0.0000000E+000	2.000000000000000E+000	1.2492894E-006
2	1	0	0	0	0	0	6.299235861008492E+002	5.0035376E-002	5.1252943E-002	1.8121604E-002	-2.0395992E-005	-2.0395992E-005	41	0.0000000E+000	7.815116178891103E-007	4	3.855643754725209E-011	-4.375641416104057E-015	1.809617534542118E+003	0.000000000000000E+000	0.000000000000000E+000	7.815116178891103E-007	7.815116178891103E-007	0.0000000E+000	2.000000000000000E+000	9.2878554E-007
2	1	0	0	0	0	0	6.299245861008239E+002	5.0035376E-002	5.0530892E-002	1.2516804E-002	-2.0381309E-005	-2.0381309E-005	41	0.0000000E+000	7.855901963517281E-007	4	3.876253175451155E-011	-4.375641416104057E-015	3.396130250150965E+003	0.000000000000000E+000	0.000000000000000E+000	7.855901963517281E-007	7.855901963517281E-007	0.0000000E+000	2.000000000000000E+000	6.3248530E-007
2	1	0	0	0	0	0	6.299255861007987E+002	5.0035376E-002	5.0553810E-002	6.5818164E-003	-2.0372365E-005	-2.0372365E-005	41	0.0000000E+000	7.880746327120705E-007	4	3.888812947786023E-011	-4.375641416104057E-015	3.315630703349120E+003	0.000000000000000E+000	0.000000000000000E+000	7.880746327120705E-007	7.880746327120705E-007	0.0000000E+000	2.000000000000000E+000	3.3273588E-007
2	1	0	0	0	0	0	6.299265861007734E+002	5.0035376E-002	5.1035181E-002	1.3663712E-003	-2.0369107E-005	-2.0369107E-005	41	0.0000000E+000	7.889795799403346E-007	4	3.893431362316770E-011	-4.375641416104057E-015	2.124433043400737E+003	0.000000000000000E+000	0.000000000000000E+000	7.889795799403346E-007	7.889795799403346E-007	0.0000000E+000	2.000000000000000E+000	6.9732998E-008
2	0	0	0	0	0	0	6.299275861007482E+002	5.0035376E-002	5.1340815E-002	-4.5056329E-003	-2.0371181E-005	-2.0371181E-005	41	0.0000000E+000	-5.760133111225722E-010	5	3.893431362316770E-011	-3.394863407558120E-014	2.124433043400737E+003	8.913833169658950E-001	5.760133111225722E-010	0.000000000000000E+000	5.760133111225722E-010	0.0000000E+000	2.000000000000000E+000	-2.3132286E-007
2	0	0	0	0	0	0	6.299287861007178E+002	5.0035376E-002	5.0993156E-002	-9.7443629E-003	-2.0380467E-005	-2.0380467E-005	41	0.0000000E+000	-3.155441340317366E-009	5	3.893431362316770E-011	-1.654818091544246E-013	2.124433043400737E+003	4.988841895477011E+000	3.155441340317366E-009	0.000000000000000E+000	3.155441340317366E-009	0.0000000E+000	2.000000000000000E+000	-4.9689584E-007
2	0	0	0	0	0	0	6.299297861006926E+002	5.0035376E-002	5.1031359E-002	-1.4905603E-002	-2.0393243E-005	-2.0393243E-005	41	0.0000000E+000	-6.704491776568871E-009	5	3.893431362316770E-011	-3.465946744435250E-013	2.124433043400737E+003	1.027684592481741E+001	6.704491776568871E-009	0.000000000000000E+000	6.704491776568871E-009	0.0000000E+000	2.000000000000000E+000	-7.6065317E-007
2	0	0	0	0	0	0	6.299311861006572E+002	5.0035376E-002	5.1306430E-002	-2.0784859E-002	-2.0418820E-005	-2.0418820E-005	41	0.0000000E+000	-1.380916122191868E-008	5	3.893431362316770E-011	-7.111099017935573E-013	2.124433043400737E+003	1.884499830233312E+001	1.380916122191868E-008	0.000000000000000E+000	1.380916122191868E-008	0.0000000E+000	2.000000000000000E+000	-1.0663969E-006
2	0	0	0	0	0	0	6.299325861006218E+002	5.0035376E-002	5.1413398E-002	-2.6209487E-002	-2.0452420E-005	-2.0452420E-005	41	0.0000000E+000	-2.314259796144601E-008	5	3.893431362316770E-011	-1.190973601793728E-012	2.124433043400737E+003	3.027980297576210E+001	2.314259796144601E-008	0.000000000000000E+000	2.314259796144601E-008	0.0000000E+000	2.000000000000000E+000	-1.3475187E-006
2	0	0	0	0	0	0	6.299343861005764E+002	5.0035376E-002	5.1661726E-002	-3.2102104E-002	-2.0505557E-005	-2.0505557E-005	41	0.0000000E+000	-3.790268642155209E-008	5	3.893431362316770E-011	-1.953505248844515E-012	2.124433043400737E+003	4.543258432875404E+001	3.790268642155209E-008	0.000000000000000E+000	3.790268642155209E-008	0.0000000E+000	2.000000000000000E+000	-1.6584502E-006
2	0	0	0	0	0	0	6.299365861005208E+002	5.0035376E-002	5.1386658E-002	-3.7191961E-002	-2.0582576E-005	-2.0582576E-005	41	0.0000000E+000	-5.929703345625699E-008	5	3.893431362316770E-011	-3.052889245238294E-012	2.124433043400737E+003	7.815782343972721E+001	5.929703345625699E-008	0.000000000000000E+000	5.929703345625699E-008	0.0000000E+000	2.000000000000000E+000	-1.9111706E-006
2	0	0	0	0	0	0	6.299485861002177E+002	5.0035376E-002	4.9327467E-002	-3.1597469E-002	-2.1048043E-005	-2.1048043E-005	41	0.0000000E+000	-1.885933266344682E-007	5	3.893431362316770E-011	-9.430747833260850E-012	2.124433043400737E+003	1.004508631844323E+003	1.885933266344682E-007	0.000000000000000E+000	1.885933266344682E-007	0.0000000E+000	2.000000000000000E+000	-1.5586231E-006
2	0	0	0	0	0	0	6.299503861001722E+002	5.0035376E-002	5.0634041E-002	-2.6566014E-002	-2.1100026E-005	-2.1100026E-005	41	0.0000000E+000	-2.030330708496167E-007	5	3.893431362316770E-011	-1.016189044006857E-011	2.124433043400737E+003	3.687956860615311E+002	2.030330708496167E-007	0.000000000000000E+000	2.030330708496167E-007	0.0000000E+000	2.000000000000000E+000	-1.3451446E-006
2	0	0	0	0	0	0	6.299521861001267E+002	5.0035376E-002	4.9847040E-002	-2.1320794E-002	-2.1142872E-005	-2.1142872E-005	41	0.0000000E+000	-2.149348195719840E-007	5	3.893431362316770E-011	-1.075515738857523E-011	2.124433043400737E+003	6.473482706680244E+002	2.149348195719840E-007	0.000000000000000E+000	2.149348195719840E-007	0.0000000E+000	2.000000000000000E+000	-1.0627784E-006
2	0	0	0	0	0	0	6.299537861000863E+002	5.0035376E-002	4.9644560E-002	-1.6305372E-002	-2.1172371E-005	-2.1172371E-005	41	0.0000000E+000	-2.231288615601234E-007	5	3.893431362316770E-011	-1.116194699459904E-011	2.124433043400737E+003	8.090048146972654E+002	2.231288615601234E-007	0.000000000000000E+000	2.231288615601234E-007	0.0000000E+000	2.000000000000000E+000	-8.0947302E-007
2	0	0	0	0	0	0	6.299553861000459E+002	5.0035376E-002	4.9346570E-002	-1.0573077E-002	-2.1193418E-005	-2.1193418E-005	41	0.0000000E+000	-2.289753966680210E-007	5	3.893431362316770E-011	-1.145045344812307E-011	2.124433043400737E+003	1.185989210247151E+003	2.289753966680210E-007	0.000000000000000E+000	2.289753966680210E-007	0.0000000E+000	2.000000000000000E+000	-5.2174511E-007
2	0	0	0	0	0	0	6.299569861000055E+002	5.0035376E-002	5.0259642E-002	-5.3530517E-003	-2.1205680E-005	-2.1205680E-005	41	0.0000000E+000	-2.323814543261606E-007	5	3.893431362316770E-011	-1.162164068768453E-011	2.124433043400737E+003	5.203332314944134E+002	2.323814543261606E-007	0.000000000000000E+000	2.323814543261606E-007	0.0000000E+000	2.000000000000000E+000	-2.6904246E-007
2	0	0	0	0	0	0	6.299583860999701E+002	5.0035376E-002	5.0015137E-002	-2.2883812E-004	-2.1208883E-005	-2.1208883E-005	41	0.0000000E+000	-2.332712433093948E-007	5	3.893431362316770E-011	-1.166614360522575E-011	2.124433043400737E+003	6.159630478826260E+002	2.332712433093948E-007	0.000000000000000E+000	2.332712433093948E-007	2.9566195E+001	2.000000000000000E+000	-1.1445370E-008
2	1	0	0	0	0	0	6.299599860999297E+002	5.0035376E-002	4.9934905E-002	5.0885263E-003	-2.1204351E-005	-2.1204351E-005	41	0.0000000E+000	1.259144887120811E-009	6	6.287528034779653E-014	0.000000000000000E+000	0.000000000000000E+000	0.000000000000000E+000	0.000000000000000E+000	1.259144887120811E-009	1.259144887120811E-009	0.0000000E+000	3.000000000000000E+000	2.5409508E-007
2	1	0	0	0	0	0	6.299615860998892E+002	5.0035376E-002	4.9254879E-002	1.0252438E-002	-2.1191305E-005	-2.1191305E-005	41	0.0000000E+000	4.882975998852082E-009	6	2.413666445605763E-013	0.000000000000000E+000	2.585007368127012E+001	0.000000000000000E+000	0.000000000000000E+000	4.882975998852082E-009	4.882975998852082E-009	0.0000000E+000	3.000000000000000E+000	5.0498261E-007
2	1	0	0	0	0	0	6.299633860998438E+002	5.0035376E-002	5.0091542E-002	1.5802270E-002	-2.1167321E-005	-2.1167321E-005	41	0.0000000E+000	1.154502468933878E-008	6	5.750789383684817E-013	0.000000000000000E+000	2.653396979867788E+002	0.000000000000000E+000	0.000000000000000E+000	1.154502468933878E-008	1.154502468933878E-008	0.0000000E+000	3.000000000000000E+000	7.9156007E-007
2	1	0	0	0	0	0	6.299651860997983E+002	5.0035376E-002	4.9919628E-002	2.1047872E-002	-2.1133403E-005	-2.1133403E-005	41	0.0000000E+000	2.096688452487162E-008	6	1.045414672722395E-012	0.000000000000000E+000	4.940677578639290E+003	0.000000000000000E+000	0.000000000000000E+000	2.096688452487162E-008	2.096688452487162E-008	0.0000000E+000	3.000000000000000E+000	1.0507019E-006
2	1	0	0	0	0	0	6.299671860997478E+002	5.0035376E-002	4.9904346E-002	2.6397683E-002	-2.1085449E-005	-2.1085449E-005	41	0.0000000E+000	3.428744498200470E-008	6	1.710168536897322E-012	0.000000000000000E+000	4.039287741527446E+003	0.000000000000000E+000	0.000000000000000E+000	3.428744498200470E-008	3.428744498200470E-008	0.0000000E+000	3.000000000000000E+000	1.3173591E-006
2	1	0	0	0	0	0	6.299699860996770E+002	5.0035376E-002	4.9499385E-002	3.1872697E-002	-2.1003571E-005	-2.1003571E-005	41	0.0000000E+000	5.703138109917470E-008	6	2.835979388515684E-012	0.000000000000000E+000	4.714203461666790E+002	0.000000000000000E+000	0.000000000000000E+000	5.703138109917470E-008	5.703138109917470E-008	0.0000000E+000	3.000000000000000E+000	1.5776789E-006
2	1	0	0	0	0	0	6.299751860995457E+002	5.0035376E-002	4.9243417E-002	3.6922093E-002	-2.0822792E-005	-2.0822792E-005	41	0.0000000E+000	1.072476152330637E-007	6	5.308798327921072E-012	0.000000000000000E+000	5.583483730201486E+002	0.000000000000000E+000	0.000000000000000E+000	1.072476152330637E-007	1.072476152330637E-007	0.0000000E+000	3.000000000000000E+000	1.8181701E-006
2	1	0	0	0	0	0	6.299833860993385E+002	5.0035376E-002	5.0580554E-002	3.1872317E-002	-2.0533451E-005	-2.0533451E-005	41	0.0000000E+000	1.876201673035721E-007	6	9.374086514770217E-012	0.000000000000000E+000	1.046130217198456E+003	0.000000000000000E+000	0.000000000000000E+000	1.876201673035721E-007	1.876201673035721E-007	0.0000000E+000	3.000000000000000E+000	1.6121195E-006
2	1	0	0	0	0	0	6.299865860992577E+002	5.0035376E-002	5.0259642E-002	2.6603047E-002	-2.0440571E-005	-2.0440571E-005	41	0.0000000E+000	2.134200056186983E-007	6	1.067077715996343E-011	0.000000000000000E+000	2.365949541705386E+003	0.000000000000000E+000	0.000000000000000E+000	2.134200056186983E-007	2.134200056186983E-007	0.0000000E+000	3.000000000000000E+000	1.3370596E-006
2	1	0	0	0	0	0	6.299889860991971E+002	5.0035376E-002	5.0263464E-002	2.1481125E-002	-2.0383008E-005	-2.0383008E-005	41	0.0000000E+000	2.294099330255349E-007	6	1.147448630774842E-011	0.000000000000000E+000	2.513626721288707E+003	0.000000000000000E+000	0.000000000000000E+000	2.294099330255349E-007	2.294099330255349E-007	0.0000000E+000	3.000000000000000E+000	1.0797157E-006
2	1	0	0	0	0	0	6.299915860991314E+002	5.0035376E-002	5.0393354E-002	1.6195443E-002	-2.0334068E-005	-2.0334068E-005	41	0.0000000E+000	2.430043524428684E-007	6	1.215955469987810E-011	0.000000000000000E+000	1.908206648319167E+003	0.000000000000000E+000	0.000000000000000E+000	2.430043524428684E-007	2.430043524428684E-007	0.0000000E+000	3.000000000000000E+000	8.1614269E-007
2	1	0	0	0	0	0	6.299937860990758E+002	5.0035376E-002	5.0393358E-002	1.1096041E-002	-2.0304600E-005	-2.0304600E-005	41	0.0000000E+000	2.511898047588247E-007	6	1.257204712778816E-011	0.000000000000000E+000	1.972467388930646E+003	0.000000000000000E+000	0.000000000000000E+000	2.511898047588247E-007	2.511898047588247E-007	0.0000000E+000	3.000000000000000E+000	5.5916678E-007
2	1	0	0	0	0	0	6.299961860990152E+002	5.0035376E-002	5.1252943E-002	5.8794501E-003	-2.0284720E-005	-2.0284720E-005	41	0.0000000E+000	2.567119534230896E-007	6	1.285507349593256E-011	0.000000000000000E+000	7.011659572423466E+002	0.000000000000000E+000	0.000000000000000E+000	2.567119534230896E-007	2.567119534230896E-007	0.0000000E+000	3.000000000000000E+000	3.0133913E-007
2	1	0	0	0	0	0	6.299983860989596E+002	5.0035376E-002	5.0641678E-002	7.6516159E-004	-2.0278276E-005	-2.0278276E-005	41	0.0000000E+000	2.585021421610791E-007	6	1.294573165805098E-011	0.000000000000000E+000	1.316699111171286E+003	0.000000000000000E+000	0.000000000000000E+000	2.585021421610791E-007	2.585021421610791E-007	0.0000000E+000	3.000000000000000E+000	3.8749068E-008
2	0	0	0	0	0	0	6.300011860988889E+002	5.0035376E-002	5.0355151E-002	-4.5495303E-003	-2.0284348E-005	-2.0284348E-005	41	0.0000000E+000	-1.686607396954087E-009	7	1.294573165805098E-011	-8.492937065000559E-014	1.316699111171286E+003	0.000000000000000E+000	1.686607396954087E-009	0.000000000000000E+000	1.686607396954087E-009	0.0000000E+000	3.000000000000000E+000	-2.2909229E-007
2	0	0	0	0	0	0	6.300043860988080E+002	5.0035376E-002	4.9965475E-002	-9.5653348E-003	-2.0308111E-005	-2.0308111E-005	41	0.0000000E+000	-8.287517832488461E-009	7	1.294573165805098E-011	-4.147469943738887E-013	1.316699111171286E+003	7.656366511954550E+001	8.287517832488461E-009	0.000000000000000E+000	8.287517832488461E-009	0.0000000E+000	3.000000000000000E+000	-4.7793651E-007
2	0	0	0	0	0	0	6.300089860986918E+002	5.0035376E-002	5.0985519E-002	-1.4603662E-002	-2.0365915E-005	-2.0365915E-005	41	0.0000000E+000	-2.434414151745566E-008	7	1.294573165805098E-011	-1.233402283817709E-012	1.316699111171286E+003	1.390282698433352E+002	2.434414151745566E-008	0.000000000000000E+000	2.434414151745566E-008	0.0000000E+000	3.000000000000000E+000	-7.4457529E-007
2	0	0	0	0	0	0	6.300243860983028E+002	5.0035376E-002	4.9724787E-002	-9.2569049E-003	-2.0587036E-005	-2.0587036E-005	41	0.0000000E+000	-8.576686620169037E-008	7	1.294573165805098E-011	-4.287634214795552E-012	1.316699111171286E+003	4.898135133368217E+002	8.576686620169037E-008	0.000000000000000E+000	8.576686620169037E-008	0.0000000E+000	3.000000000000000E+000	-4.6029763E-007
2	0	0	0	0	0	0	6.300281860982068E+002	5.0035376E-002	5.0721906E-002	-4.2468263E-003	-2.0612906E-005	-2.0612906E-005	41	0.0000000E+000	-9.295288489536505E-008	7	1.294573165805098E-011	-4.652122780392534E-012	1.316699111171286E+003	9.124089401345880E+002	9.295288489536505E-008	0.000000000000000E+000	9.295288489536505E-008	3.5958263E+001	3.000000000000000E+000	-2.1540713E-007
2	1	0	0	0	0	0	6.300321860981057E+002	5.0035376E-002	4.9633097E-002	9.9037657E-004	-2.0619631E-005	-2.0619631E-005	41	0.0000000E+000	-1.868001062474825E-009	8	0.000000000000000E+000	-9.271467774977079E-014	0.000000000000000E+000	0.000000000000000E+000	1.868001062474825E-009	0.000000000000000E+000	1.868001062474825E-009	0.0000000E+000	4.000000000000000E+000	4.9155457E-008
2	1	0	0	0	0	0	6.300367860979895E+002	5.0035376E-002	4.9873780E-002	6.1527626E-003	-2.0603002E-005	-2.0603002E-005	41	0.0000000E+000	2.751221472863108E-009	8	2.303780906194743E-013	-9.271467774977079E-014	0.000000000000000E+000	0.000000000000000E+000	0.000000000000000E+000	2.751221472863108E-009	2.751221472863108E-009	0.0000000E+000	4.000000000000000E+000	3.0686152E-007
2	1	0	0	0	0	0	6.300451860977773E+002	5.0035376E-002	5.0572913E-002	1.1201396E-002	-2.0525204E-005	-2.0525204E-005	41	0.0000000E+000	2.436182613665643E-008	8	1.323289323185637E-012	-9.271467774977079E-014	1.350636016560808E+002	0.000000000000000E+000	0.000000000000000E+000	2.436182613665643E-008	2.436182613665643E-008	0.0000000E+000	4.000000000000000E+000	5.6648719E-007
2	1	0	0	0	0	0	6.300613860973681E+002	5.0035376E-002	5.0664604E-002	6.1031384E-003	-2.0355094E-005	-2.0355094E-005	41	0.0000000E+000	7.161462336726891E-008	8	3.717333569071853E-012	-9.271467774977079E-014	3.345089406634949E+002	0.000000000000000E+000	0.000000000000000E+000	7.161462336726891E-008	7.161462336726891E-008	0.0000000E+000	4.000000000000000E+000	3.0921308E-007
2	1	0	0	0	0	0	6.300677860972064E+002	5.0035376E-002	5.0710451E-002	1.0045002E-003	-2.0333353E-005	-2.0333353E-005	41	0.0000000E+000	7.765366818704116E-008	8	4.023576254633434E-012	-9.271467774977079E-014	3.421634250941707E+002	0.000000000000000E+000	0.000000000000000E+000	7.765366818704116E-008	7.765366818704116E-008	0.0000000E+000	4.000000000000000E+000	5.0938660E-008
2	0	0	0	0	0	0	6.300743860970397E+002	5.0035376E-002	4.9877606E-002	-4.0761973E-003	-2.0343878E-005	-2.0343878E-005	41	0.0000000E+000	-2.923520191365270E-009	9	4.023576254633434E-012	-2.385328669592242E-013	3.421634250941707E+002	7.054728565170606E+001	2.923520191365270E-009	0.000000000000000E+000	2.923520191365270E-009	3.7648191E+000	4.000000000000000E+000	-2.0331096E-007
2	1	0	0	0	0	0	6.301087860961707E+002	5.0035376E-002	4.9996033E-002	9.5449487E-004	-2.0508131E-005	-2.0508131E-005	41	0.0000000E+000	-4.562581226410749E-008	10	0.000000000000000E+000	-2.281109629792741E-012	0.000000000000000E+000	0.000000000000000E+000	4.562581226410749E-008	0.000000000000000E+000	4.562581226410749E-008	0.0000000E+000	5.000000000000000E+000	4.7720956E-008
2	0	0	0	0	0	0	6.301503860951198E+002	5.0035376E-002	5.0676063E-002	-4.0658908E-003	-2.0486597E-005	-2.0486597E-005	41	0.0000000E+000	5.981443488660240E-009	11	3.031160052865908E-013	-2.281109629792741E-012	0.000000000000000E+000	0.000000000000000E+000	0.000000000000000E+000	5.981443488660240E-009	5.981443488660240E-009	0.0000000E+000	5.000000000000000E+000	-2.0604334E-007
2	0	0	0	0	0	0	6.311503860698576E+002	5.0035376E-002	5.0576732E-002	-2.8932458E-003	-2.3572673E-005	-2.3572673E-005	41	0.0000000E+000	-8.512617771177447E-007	11	3.031160052865908E-013	-4.563766988227396E-011	0.000000000000000E+000	5.597276225101039E+003	8.512617771177447E-007	0.000000000000000E+000	8.512617771177447E-007	0.0000000E+000	5.000000000000000E+000	-1.4633092E-007
2	0	0	0	0	0	0	6.321503860445955E+002	5.0035376E-002	5.0160307E-002	-2.7867460E-003	-2.6498987E-005	-2.6498987E-005	41	0.0000000E+000	-1.664126709025974E-006	11	3.031160052865908E-013	-8.641122477169434E-011	0.000000000000000E+000	3.759960507871852E+004	1.664126709025974E-006	0.000000000000000E+000	1.664126709025974E-006	0.0000000E+000	5.000000000000000E+000	-1.3978404E-007
2	0	0	0	0	0	0	6.331503860193334E+002	5.0035376E-002	5.0611116E-002	-2.9714985E-003	-2.9175997E-005	-2.9175997E-005	41	0.0000000E+000	-2.407740693241875E-006	11	3.031160052865908E-013	-1.240463583801701E-010	0.000000000000000E+000	1.439424793982043E+004	2.407740693241875E-006	0.000000000000000E+000	2.407740693241875E-006	0.0000000E+000	5.000000000000000E+000	-1.5039086E-007
2	0	0	0	0	0	0	6.341503859940713E+002	5.0035376E-002	4.9927264E-002	-2.3588375E-003	-3.1687367E-005	-3.1687367E-005	41	0.0000000E+000	-3.105343340495084E-006	11	3.031160052865908E-013	-1.588757502319827E-010	0.000000000000000E+000	1.652640792168879E+005	3.105343340495084E-006	0.000000000000000E+000	3.105343340495084E-006	0.0000000E+000	5.000000000000000E+000	-1.1777031E-007
2	0	0	0	0	0	0	6.351503859688091E+002	5.0035376E-002	5.0672244E-002	-1.8751979E-003	-3.4085395E-005	-3.4085395E-005	41	0.0000000E+000	-3.771462312821920E-006	11	3.031160052865908E-013	-1.926294935176549E-010	0.000000000000000E+000	2.035319014899956E+004	3.771462312821920E-006	0.000000000000000E+000	3.771462312821920E-006	0.0000000E+000	5.000000000000000E+000	-9.5020482E-008
2	0	0	0	0	0	0	6.361503859435470E+002	5.0035376E-002	5.0660785E-002	-1.9725366E-003	-3.6397058E-005	-3.6397058E-005	41	0.0000000E+000	-4.413590836015323E-006	11	3.031160052865908E-013	-2.251602287582116E-010	0.000000000000000E+000	2.418151986471170E+004	4.413590836015323E-006	0.000000000000000E+000	4.413590836015323E-006	0.0000000E+000	5.000000000000000E+000	-9.9930254E-008
2	0	0	0	0	0	0	6.371503859182849E+002	5.0035376E-002	5.0038058E-002	-1.6595259E-003	-3.8649403E-005	-3.8649403E-005	41	0.0000000E+000	-5.039242346861606E-006	11	3.031160052865908E-013	-2.564666155401449E-010	0.000000000000000E+000	4.360989561403022E+005	5.039242346861606E-006	0.000000000000000E+000	5.039242346861606E-006	0.0000000E+000	5.000000000000000E+000	-8.3039453E-008
2	0	0	0	0	0	0	6.381503858930228E+002	5.0035376E-002	5.0351333E-002	-2.6390201E-003	-4.0844177E-005	-4.0844177E-005	41	0.0000000E+000	-5.648901909201716E-006	11	3.031160052865908E-013	-2.871637871028039E-010	0.000000000000000E+000	5.775924086664482E+004	5.648901909201716E-006	0.000000000000000E+000	5.648901909201716E-006	0.0000000E+000	5.000000000000000E+000	-1.3287818E-007
2	0	0	0	0	0	0	6.391503858677606E+002	5.0035376E-002	4.9892884E-002	-2.5248858E-003	-4.3002012E-005	-4.3002012E-005	41	0.0000000E+000	-6.248300350206490E-006	11	3.031160052865908E-013	-3.170695038384773E-010	0.000000000000000E+000	2.198716766755300E+005	6.248300350206490E-006	0.000000000000000E+000	6.248300350206490E-006	0.0000000E+000	5.000000000000000E+000	-1.2597384E-007
2	0	0	0	0	0	0	6.396811858543515E+002	5.0035376E-002	5.0038058E-002	-1.8450420E-003	-4.4130393E-005	-4.4130393E-005	41	0.0000000E+000	-6.561739509278495E-006	11	3.031160052865908E-013	-3.327533907569938E-010	0.000000000000000E+000	5.665210811458426E+005	6.561739509278495E-006	0.000000000000000E+000	6.561739509278495E-006	1.0970160E+005	5.000000000000000E+000	-9.2322317E-008